0.21250371507793478
0.31100289011939636
0.40025622628844104
0.48026365997064596
0.5510251273119537
0.612540564452776
0.6524356955461088
0.6822577286268209
0.7200597980000044
0.7678494112353477
0.8268469883445774
0.8848725345867777
0.9401774561474384
0.9826291822497125
0.9997438425765092
1.0
0.9895797150871597
0.966141587571597
0.916175544370783
0.8826425539025192
0.8480672158935324
0.82938181211385
0.8211812787012187
0.8176919158485202
0.8018617564623982
0.7785228565009207
0.7451295714579736
0.6769433766330157
0.5771673556331426
0.4908746612089154
0.4084607686666226
0.3519790104664993
0.30812355760098303
0.285372970617479
0.26350698948532825
0.2517414010376716
0.24059611920668023
0.20935756438902658
0.18935950427369982
0.16849141392166886
0.16044227217896326
0.1625963791197373
0.18013418431021427
0.209149754707676
0.2302793334537605
0.2427254150413022
0.24652235466153802
0.23784871208141875
0.2328192154299055
0.21392793567689544
0.1988237991222887
0.18471631157853555
0.17554005460201624
0.16197861562337307
0.12893694706853273
0.09500037053937153
0.0596847987148277
0.03161251125541442
0.012536305328199266
0.001210201102464204
0.0
0.0047009734361124125
0.012045085231404283
0.01897367815465233
0.033537134786295816
0.05690145122667391
0.0745308492561454
0.101898610132582
0.1160951260523034
0.12101167464527163
0.11922942319049436
0.1097777186261138
0.09852065615781477
0.09143695507295722
0.10000504373898053
0.10995867957923171
0.13363822623911673
0.16636208139508868
0.19789920145350928
0.21718163113865752
0.22993423830508777
0.23547554183908057
0.229148709583754
0.21815297621590826
0.2025040966295085
0.1923901305022432
0.19505000728565358
0.20093474263331607
0.20820678158854639
0.20844787811429186
0.19501815812475146
0.18098477828766046
0.15976755970098203
0.14905649423877634
0.14333743360135023
0.1537247083017044
0.16128385225090683
0.1593898550804867
0.15346811314464115
0.14481430236286427
0.12541355462108572
0.10975773370531133
0.09777761597801575
0.09391732540753779
0.09654353449001493
0.09531021926230251
0.08490279953798253
0.08030664245232554
0.08143296686684853
0.0813085438231311
0.0833467875899142
0.10094424887493432
0.125055594338144
0.14709385167025824
0.1696009016004566
0.17235785676439813
0.17316015456588998
0.17238267886184297
0.16299769005455525
0.14962931895140744
0.14880763594339766
0.15629954909236357
0.16886828883206753
0.18057707791487226
0.19512347839599142
0.20695924192001255
0.22531639277999818
0.2573994111846329
0.29528868174798983
0.3154971360932858
0.321438144357984
0.3100938636393921
0.2982531526957608
0.28085072385497073
0.2554465550776345
0.22830338623653448
0.21328078870440634
0.22247978071836086
0.22202644902821403
0.22259697523276387
0.24096990329703136
0.27116294106415084
0.2970861347635766
0.31059508473317154
0.29916657312938255
0.27173795945446383
0.2400013902397663
0.20119744225420896
0.16159821037209082
0.1487022041691808
0.16228052855378022
0.18104223302113853
0.19752519215528563
0.20604069549141427
0.2029125472757391
0.1908857457539242
0.17705415399962746
0.1572582434310623
0.13908500106816432
0.13021606428240845
0.13061664215965926
0.13860307276106607
0.1520931959947522
0.16591629954326614
0.17969394410122425
0.188908000319323
0.19186486570404707
0.1941788659411442
0.1908884272371815
0.18549064101299492
0.1819906862993468
0.1644724292935977
0.14759158802984496
0.14294519192867372
0.16412290736128082
0.20698003767416115
0.2505441472492008
0.30064358356878257
0.3277574355391032
0.3369019764463837
0.32323993426515096
0.2768179637180613
0.2276000070365085
0.18085634035258352
0.15497862704846294
0.15201896867025239
0.15018270923678217
0.1572208713942062
0.1649883056928343
0.17074984487137132
0.1716308307019126
0.1753922373359268
0.17877081789285465
0.1739202666722635
0.16362990250307155
0.15975547992933675
0.15430120395798222
0.150310429772365
0.1480169123952346
0.14554721159083472
0.1435834407002679
0.15069354560826473
0.15841849102581426
0.17552052529456028
0.22060547222479882
0.2966071289345045
0.3880274391272634
0.4734950579029857
0.5421597090838105
0.5935776095767912
0.6091122942527825
0.5937100353205259
0.5468025105162021
0.4871448952806062
0.42916836505234435
0.3649169339656653
0.3115317497469682
0.26169944741524587
0.2177509632840455
0.19398290364778728
0.18138306925265546
0.17533296771100956
0.17645469176532458
0.18202768553492552
0.18140072037641922
0.16874968210835345
0.1631632490445587
0.15573368314123598
0.14549884015003328
0.14415473921869001
0.1414037942853037
0.13880456198043814
0.14170658769086977
0.14619372151639518
0.1506114609958249
0.15095899731227636
0.1502744827761584
0.15022614568194542
0.14090007900501228
0.13765387180303648
0.13612808855788425
0.13636701897616768
0.13230259195279406
0.13226348594040754
0.1339577044321251
0.13616431333316673
0.13370703834209935
0.13748016137033434
0.14036464280016545
0.15050498408548835
0.16060782854024383
0.16777855029596678
0.16918728110343273
0.17325252074274544
0.17355267018292078
0.17825214280238047
0.1776713640797313
0.18673469789746355
0.19202137335038072
0.1955634115223062
0.19350458825202993
0.1927289009326354
0.18844351969352374
0.18583864066037206
0.1825972088451955
0.18519958882648724
0.18833973374295976
0.18606894778060756
0.1803193440245327
0.17307282356660567
0.161284864436031
0.155689943422532
0.15101675969296935
0.15123482101359922
0.15676178480883926
0.16656567914281425
0.1714796345345954
0.1705563581034931
0.17217901812238645
0.17174880712836788
0.16666451176162972
0.16368028738529916
0.16222239581183454
0.16263868291658676
0.16423584275607542
0.1613639056323222
0.157115545270885
0.15846905401836478
0.16319678945726793
0.16522035739328508
0.16537079149519873
0.17011825174948858
0.17290111186047455
0.17560647069887314
0.17205127398082695
0.1739512194632282
0.17623909221065198
0.1839602420051779
0.18776825390783783
0.189560083651279
0.18507045953455062
0.18241327244777034
0.17873297642856906
0.17323138845173816
0.16303299152700848
0.15976857602510897
0.15923252623062048
0.1641186945620039
0.1681391670743215
0.17443114801697468
0.1769557853400687
0.18135598479004508
0.19028071158291518
0.1916633593998886
0.1887307004289168
0.1880620684013396
0.184819015708436
0.17967765966215957
0.17401151046066238
0.16895992314445096
0.16547293722343118
0.16374338302807148
0.17651265013929585
0.18025631580808563
0.18978309554710976
0.2003938671143003
0.20286621442050798
0.20555762986393109
0.20128307438660226
0.1984796572488327
0.19364861199902886
0.19283581507865283
0.19857012198841348
0.19766849245592782
0.19856286543239987
0.19787882808495966
0.18957679011771209
0.18657198439164613
0.18053821185783123
0.17761571538014836
0.17416091823248725
0.17094389238030855
0.1691929977989792
0.17343437872256534
0.16715202987435349
0.1586829674298832
0.1467398112267686
0.14188134617084225
0.13374378758552877
0.12326156027466356
0.10937648637748856
0.09633579125130391
0.08458581321390155
0.07496649585584275
0.057328519605504
0.04224596574336791
0.035102223432203
0.029100866548997597
0.025944144709492904
0.02317980954055559
0.021354647794188338
0.01993956245111453
0.01934212754230263
0.01728499048410448
0.018041697564695577
0.01804494945094467
0.016113757118362812
0.01298517456653516
0.01113496434474595
0.00961171588565581
0.009137971781827124
0.005893233914470584
0.010090226608453904
0.01628476161474396
0.029678406736364658
0.040044958884553616
0.04835690535118388
0.05996564846162549
0.06601028988045998
0.07396458675728819
0.07796673368610745
0.07957754369897446
0.08286363780903609
0.08571955399441894
0.09276003884792082
0.09534894332860513
0.09972016043192505
0.10507865484781118
0.10894069822114867
0.11771471172151014
0.1292857045672422
0.13837044958007796
0.1447719278319527
0.15090846241367017
0.15393785488954953
0.15685132848378863
0.15957644671418808
0.1637743593397956
0.16961672591539284
0.17665748581721744
0.1850931888713518
0.18711000687412888
0.1876668222239433
0.18707966838998072
0.1876571763923352
0.19023838641662483
0.19299218966260545
0.19742011393549555
0.20287659758080806
0.20187634950474304
0.2025562291903188
0.20167017381204308
0.19936950641311227
0.19685163712872553
0.1987960513749215
0.20130892038533518
0.2073211225203151
0.20837563275637042
0.20969974344888917
0.20736956116999214
0.2081017706492287
0.2094170375398777
0.20573744562021512
0.19918155105515084
0.19978357430453966
0.20234904628983572
0.20509084934574115
0.20362144539924784
0.20245032987339734
0.20108546148838924
0.19969232317162747
0.19675756839810996
0.19277538185933718
0.19207073553732928
0.19570564118641795
0.20193745513338776
0.20453510535376554
0.20620939009779085
0.20347897567127388
0.199707155418905
0.19501417919184072
0.19163742251477148
0.1897070221316292
0.1888499436332389
0.1864713427067555
0.18907268576220013
0.18773248028282302
0.1877366318249858
0.18749147292289342
0.187301283825983
0.1876247443430888
0.19105759761798763
0.19023740557791644
0.188307822214692
0.18546338236329304
0.18368199199722637
0.18643600005245906
0.1870004627992244
0.18716888776371451
0.18346923779400762
0.1796826083253686
0.1777917239943117
0.17251118192148795
0.1667801263669825
0.16241185296987923
0.1606617130160916
0.1648623666155706
0.16882669687739857
0.17120966289133327
0.1730673280646585
0.17402105132035314
0.17023995070815093
0.16556972275062387
0.16290955398951512
0.1611285357357755
0.15651530265144942
0.1572046520358258
0.15810034102909953
0.1574288324773625
0.15789501754401783
0.15839288918533975
0.15651126979825125
0.15686797201906139
0.1582224872263639
0.16211402205616368
0.16088581041236702
0.16525808196189096
0.1697061739377024
0.17013512588805516
0.17140682274966315
0.1681559805912913
0.16393928822744958
0.16143168691626508
0.15404239756986615
0.1499908356959399
0.14505246666472638
0.14663472220348886
0.14956659057040758
0.1504554905565464
0.15546349436842344
0.154637312904316
0.1568589635876937
0.16068367901124336
0.1598345729291888
0.15824198669031941
0.1587104255605837
0.15722961099560442
0.15453669676978693
0.15012842712914098
0.14881688141194438
0.14471374111073163
0.14300970132957544
0.1398688711863755
0.1413736741418197
0.1430555930652346
0.14678268025859872
0.14995951890413892
0.1549772516029124
0.15519544816436082
0.16313278725103203
0.1674910791831136
0.1688631290298926
0.16546552491435432
0.16691266892250622
0.16650432422830597
0.15940833256400017
0.15395382661068568
0.1494682462439459
0.14127883705441985
0.1414409543708375
0.13995657372773043
0.13861905569572158
0.13726900450210572
0.1386512970201894
0.1393884850369088
0.14079577544226515
0.1447463290294954
0.14564595493695653
0.1456966274440122
0.1499198998165241
0.15440040655503226
0.15442573936567622
0.15488795421690818
0.15351063582274868
0.1539006022572357
0.1580307219919808
0.162209825947982
0.16406187850050763
0.17007304706165227
0.18159847903865178
0.19424956317213088
0.20653195515103287
0.22919596659694974
0.25847059580037574
0.29488387280530537
0.3323631956309494
0.3708785801682059
0.4065692123832565
0.44041636029703685
0.46392137009479817
0.4771140303266861
0.48298318022380876
0.48917542399013164
0.49479397872425634
0.4990267481572636
0.5016544424694356
0.5070208870483123
0.5130536492120666
0.5205247709330465
0.5173937043149011
0.5114017033128103
0.5010442338584047
0.4845328125732171
0.4664055459414184
0.44805219021096304
0.43058353387740333
0.41618140227850775
0.4075357405118815
0.40305234609764534
0.40093277215136003
0.4017597605266576
0.4022503569987352
0.39945537210421034
0.39340459312875714
0.38540806979137215
0.37177435840334777
0.35955227288529684
0.345912179287763
0.3324082209628388
0.3225473126828745
0.3118509125740837
0.30351706556034114
0.2955530119991442
0.28170175450126006
0.2690120384984311
0.2530450817835481
0.23797518407293192
0.22242712035228515
0.21146676902109976
0.20138741207357488
0.1920241755743556
0.18876659089679523
0.1857757045315927
0.18077435302992173
0.17740344694523374
0.1721951783957558
0.16612029623180682
0.1606078392425651
0.157719496987278
0.15211434797741244
0.14811571048299138
0.14761092230554315
0.14706738624195484
0.1463200544634874
0.14750039219173383
0.14611439226587514
0.1451005555370346
0.14158888763825112
0.13999743917376267
0.13617100046548034
0.13603208932757752
0.13673568760322496
0.13768846711498425
0.14078292260176947
0.14503222329812102
0.14532979970129697
0.14453462043588447
0.1412663532412691
0.14048123213037034
0.13921481640994152
0.14063499147185196
0.14031277189634891
0.13999135072965277
0.14187722422746304
0.14342449171311072
0.14174852189702658
0.13960383151733624
0.13888812387836813
0.1375238301638478
0.13761293504102323
0.1403607614327683
0.14183665706249063
0.1443668350297087
0.14467824329698073
0.1455853179269101
0.1445572869132557
0.14606747342777054
0.14659878071144825
0.14394427582345548
0.14557123980547718
0.14749434543931106
0.14735226853046177
0.14784994866168483
0.14675062158837998
0.14789504455307417
0.14800532687036053
0.15003054630160326
0.14965168442254984
0.14880159695799602
0.148850230746677
0.14723210385097968
0.147060729475898
0.14706585260319674
0.14928498933656573
0.1514715190589508
0.15079100479914148
0.15159741685978742
0.1516640827988461
0.1524008801780674
0.15140679409679125
0.14981772752028621
0.15235631793955348
0.15422045508004853
0.15370656869721594
0.1535596313268172
0.15355560579839916
0.15404832095942655
0.15347868826802524
0.15320682111968675
0.15141957919114304
0.15007985442886396
0.14935219955712425
0.14965025337886795
0.14942990739959056
0.1506640474678078
0.1516242636691314
0.15238049886667202
0.15214089105979228
0.1513041781606901
0.15072242634363983
0.14912556083238598
0.14684757846383856
0.1475700976696983
0.14998819945693295
0.14925508106474555
0.15153819180599137
0.15303189277554846
0.15451857439426975
0.15612306505509801
0.1572229614382655
0.15626929050719424
0.15581290933729378
0.15417532633819253
0.15314522244910425
0.15184116244512516
0.15169316278667638
0.15020577125820309
0.15259998878008793
0.15555343678392822
0.15905648386166332
0.16204839028523627
0.16479351189409625
0.1654988132497951
0.16333269440801831
0.1638349717893402
0.1616806591198054
0.15981416509823645
0.1611350605069635
0.16223625057032168
0.16382541143482895
0.16503603976441206
0.16511620231675445
0.16527669603476067
0.16277294658197705
0.1627412109540081
0.16125627119696592
0.15852760495187437
0.157763589693294
0.15719103539200643
0.15690483965619187
0.156651191065267
0.15730709480109442
0.1594755710565652
0.1608155345657365
0.16105324866999085
0.16396498758161884
0.16372754305390128
0.16296643808961356
0.16233947095049991
0.16324668826360364
0.16182261605542103
0.16150475194503253
0.16086858037667626
0.16181726879163494
0.16116780189685606
0.16242242312440566
0.1620394371135149
0.1606417338156096
0.1609344939426366
0.16212583551397935
0.1619742375296577
0.1614413221995189
0.16158335739646518
0.1622809576458576
0.159957526379742
0.15930088197771827
0.15861247204972334
0.15719503768669274
0.15879487681960835
0.15882910829699343
0.1607202279040959
0.16193277652525684
0.1630198636136635
0.1629604194411659
0.1625068069241782
0.162256955322324
0.16154845285392952
0.1593950815066363
0.16013591451757292
0.15949689454369337
0.16140362095138114
0.1625384933018117
0.1621793039307235
0.1625778359002718
0.16342534261568176
0.1631876073381488
0.16384739395912745
0.1619077375546163
0.16171265341433588
0.16031313895925275
0.1602399112682674
0.15969470339487957
0.16109863310744493
0.16216025411829907
0.1618783427097599
0.16140370774024976
0.16208641672972296
0.16126139079909946
0.15952647312012638
0.15936253572475012
0.15830873468231688
0.1585520263959666
0.1597038967580895
0.1606335774989856
0.1606337316778337
0.1618564389349166
0.16368402498199477
0.16486117098791855
0.16332055692648628
0.1634509664038629
0.16133690569050518
0.15986769576459428
0.1579424191057342
0.1569409764572846
0.15639510717242813
0.15765980495914916
0.1581347009095989
0.15878124657627765
0.15775627110025378
0.15866145522609065
0.15863240604892073
0.15705639805327873
0.15623492152939603
0.15495248137363235
0.1553312338542362
0.15634996945271848
0.1565690295384166
0.15835965558612744
0.15870801660355904
0.16018959905915509
0.16072212358157945
0.15940393980260523
0.1576548046302972
0.15755204024048827
0.1563159413442416
0.15505242506368647
0.15378142847374038
0.15419171631357356
0.15251226013024563
0.15347556967332415
0.1538038005525716
0.15554440766135336
0.15651549968378947
0.15777818759402995
0.158067191981476
0.15884215055187778
0.159012138574672
0.1598724008331742
0.15948016251285957
0.15955409839522497
0.15849017656253686
0.1586995062539226
0.15846845873544005
0.1568306394442908
0.15744254720659642
0.1570761565073255
0.15834183854593012
0.1602881450069196
0.16107192661713643
0.1619485662352718
0.1601333928164088
0.1588345561220579
0.15775816215951252
0.15588300719340745
0.15554546361111693
0.15458853247735765
0.15652922175522388
0.1583586901112331
0.15904577954816868
0.1602593407734348
0.16009145831920665
0.15916983182718678
0.1587050020210254
0.15837318572301734
0.1575168339206433
0.15810866435606882
0.16107526606324998
0.16352734762564197
0.16304388169417364
0.16181178458301024
0.15994065407322605
0.15827735589034203
0.1580423711851765
0.15565893182616303
0.15402132478574473
0.1534882216981629
0.1535265975426874
0.154146422419937
0.15222426519858445
0.15326975373234045
0.15322791317370274
0.15585487000841775
0.157235142412736
0.1587088035399901
0.15704783037215378
0.15535577046116641
0.15396642099700744
0.1550766876377636
0.1557076319738912
0.15772240130188644
0.1569863385898651
0.15879489292094925
0.16159385984985608
0.16320633813136962
0.15886500804364984
0.15834373809061433
0.15898240497026364
0.1590823272790262
0.1587880022040566
0.158931381921028
0.15770916881622668
0.15891734530160626
0.1630441335520574
0.16381278692854964
0.16335543842016195
0.16294738559184926
0.16258365785804565
0.16046093393788832
0.1592443532788727
0.15752911263099206
0.1528244257828056
0.15154654831388248
0.1521063629195087
0.15230700741669942
0.1538521921601813
0.15608437034634184
0.15706075490620633
0.1585548093711375
0.15973962016963994
0.1604059873079113
0.15940319277613937
0.15966041924328853
0.157820110496213
0.15619373155800595
0.15734182581558737
0.15901772631392877
0.15694726889994517
0.15692901636698675
0.15824564299600527
0.1593279760509561
0.15941385622032211
0.1597486941447973
0.1603026177958392
0.1590929790548968
0.16207774487239457
0.16195893164038824
0.16089854693760974
0.1604857140668173
0.15885732748445686
0.15692501173902007
0.15437990649826103
0.15483364543291755
0.15537201312506632
0.1549140137441759
0.15738014700984182
0.15828501970191816
0.1591300860681622
0.15991535567611606
0.1606408368128338
0.16130653570412337
