0.0806460187404939
0.20657770169101672
0.31888778033881954
0.41757633299694535
0.5026433864175974
0.574088965447126
0.6104315188146834
0.6432833759514803
0.6799096357779493
0.7315735267997742
0.8020270131351577
0.8704079581662739
0.9340255272889552
0.9798932098360184
1.0
0.9960175543253884
0.9676381597835754
0.9215065158763172
0.8621082336531292
0.8095496952347468
0.77371792565497
0.7447357970461316
0.7323303107825146
0.7211539917434541
0.7104535225561497
0.6867549358674852
0.6468700927775368
0.583834296021766
0.5110280102160946
0.4421394377809155
0.38636873291792045
0.3469040833195798
0.3261187807255741
0.3119224152565589
0.29913755538696496
0.2919370170670821
0.27453490462289937
0.24274327260793344
0.21532149424065933
0.19024058170071173
0.18226661359645535
0.18575402772151514
0.19831928297991513
0.2150701565633188
0.23093961503104027
0.24311569571901992
0.2443451172975556
0.23429741113299632
0.23107923809241368
0.22823234674973686
0.23569224735977645
0.23654735972216348
0.2324143306905501
0.21821338089304998
0.18817288842172664
0.14301077137145934
0.09495433629470387
0.04978074489962211
0.022058700222149223
0.014434044557421226
0.02281455375125675
0.0286592663387581
0.04122718317831601
0.05937099742166867
0.0760891395831257
0.09537994359527571
0.11224113455183342
0.13203021031179396
0.14653719468111065
0.15438394134817165
0.15005142013054237
0.13184150166141936
0.11672223352195762
0.11057822920609946
0.10915851569265062
0.12114456558681164
0.14506750113086783
0.17938218705491707
0.21647247416464635
0.23929313009892073
0.25072798965693216
0.24744206818501402
0.24002237670270318
0.22683252022767564
0.20803323811119356
0.19516660184541462
0.20264769801471255
0.21745369790759211
0.2384921322933642
0.24104361995047255
0.2341340234161246
0.22116862663024037
0.20570776394506443
0.1905165375711452
0.17340667917582947
0.16104537571295255
0.15409278134145787
0.1416725968649112
0.1195778453329691
0.09921005227834413
0.08366188548250586
0.07952445952137592
0.08312039279405689
0.08814309497604898
0.0913388342867288
0.0880777699506759
0.07965348977758799
0.07176648151237716
0.06507535964229008
0.0753327734571521
0.08867726517495045
0.11406439624794787
0.14162365400470225
0.16630499932622375
0.19118025026261293
0.1974152331140798
0.19841930212322423
0.19283284404566142
0.1909114857607317
0.1826444630095773
0.180409544218448
0.18764040618035618
0.1965493765110413
0.20692158978890302
0.21725705370080556
0.22694203682837383
0.2413402729617013
0.25368319759684144
0.2640930556696844
0.26218955155054396
0.25768636689922036
0.24884680542414295
0.24198452466637113
0.2338363202825928
0.22995746646851326
0.2309276833828693
0.23839018730945474
0.2517330452794886
0.25595691329558157
0.25625983171008254
0.25135512366301344
0.25419076594895945
0.26004067452195506
0.25572452728082756
0.2439067377968564
0.22705223953849607
0.2124069229541287
0.20021498481172056
0.18198822456954836
0.17746659780225196
0.185422037518871
0.207401045936366
0.22323121904039625
0.23050275456730474
0.23074485460472777
0.22802243454334295
0.21384712271898407
0.19553099343219046
0.17694681256460315
0.17114038173702056
0.1786239628370123
0.19582060923176753
0.21217142291679367
0.2257809275326492
0.23463790822642316
0.24144565140943075
0.23846646530804033
0.22926027289477324
0.2158974930055546
0.21048813757655374
0.2020396932603994
0.196450731995075
0.18571251954056203
0.1737983871877618
0.17128694744176864
0.1832938600641083
0.2006680714043426
0.21837975185621752
0.23301898576046592
0.25252765465716637
0.25413535851078156
0.24478187217307631
0.2300208544188658
0.21088339094120814
0.19675375666685166
0.1943130297933361
0.19461411772733384
0.20133455205922587
0.20740318636621197
0.2147323377578169
0.21494108472511683
0.2113154299491839
0.2100833178038194
0.20843994430653187
0.20144354708426182
0.19173253595391573
0.17878914315653938
0.16797461494729365
0.15447269665958807
0.14475004719218135
0.13767838449085318
0.13290988742422072
0.13721413977633748
0.17161765213488914
0.2261614761855204
0.29210777821037487
0.3625478757290278
0.42783784088530685
0.4747688965552969
0.5033822233859764
0.5039181681638921
0.47419481336924607
0.42919708723588307
0.38105657285820416
0.33263825132080527
0.2887913896183362
0.24920507049501284
0.22163103426407
0.20243219888314481
0.19587168920345138
0.1962369817322137
0.198534415351809
0.2064829882274586
0.20966543886476488
0.2023199397484803
0.1955412828109103
0.18620675382206803
0.17657042069665813
0.17039549399223142
0.164945767823548
0.165897369190841
0.17500463213011813
0.18099844338926463
0.1918962411397581
0.19677604959549885
0.19502386933719754
0.19090763947769504
0.18106585112086185
0.17123371670978885
0.16008817590629992
0.15843843502867527
0.15825770722052995
0.14834583751354524
0.14576779734698508
0.14885597663414385
0.14824689504341368
0.15139436164394068
0.1567219616494713
0.16144944117103263
0.17261463917467257
0.18651167345722464
0.1977827352526186
0.19932206118777937
0.1990291683199572
0.2070660455178216
0.21547752523483293
0.22391569437788048
0.22921619119293496
0.23316303764619617
0.2335371572446718
0.2305099321896867
0.2213230318449344
0.20659580950846576
0.1928290656482849
0.18602381086268172
0.18258701175393394
0.18100101531347954
0.17859599822392586
0.17398971377058048
0.16162699459508179
0.15278963283372538
0.148217575277298
0.14143003862024925
0.14240409183819713
0.14800229070059429
0.15439051277455446
0.15999469667099642
0.16901150855334235
0.17259693988076616
0.17247594293016824
0.17426820966228954
0.17786705705192082
0.17582687919134915
0.1798876807404339
0.17844325216464785
0.17602761914701398
0.17277292995094237
0.17467066725809238
0.1743860455918758
0.175790867378228
0.18038120739042507
0.18573133660608526
0.1954693463741614
0.20301135357517228
0.2064535389108876
0.20874201074982318
0.21302472992888513
0.21514516694397098
0.21608229090975406
0.21405770825681414
0.21187459305153905
0.20763877858468563
0.20267623776474414
0.19461760322930038
0.18722362488730734
0.18261787561363949
0.18305686644359342
0.19120824613125736
0.19963355342860287
0.20521249546541417
0.2107087093862745
0.2146094854513709
0.21267429833586046
0.21259297058497054
0.21279115624605024
0.2137821731627218
0.2112662902052003
0.2132951102272058
0.21336051676402698
0.20880231672612307
0.20662817773770464
0.2068711719522474
0.20693011219423701
0.2137830497971259
0.2231546559793706
0.2322319413876336
0.24017386102926708
0.24768539688590624
0.2570766367631136
0.2570826778469254
0.260299309070023
0.26540511795005683
0.26803078809577824
0.2676622712331188
0.26371405176870794
0.25816092064621804
0.2515004569588254
0.2423418931401704
0.23554516872557246
0.22482759639980085
0.2188058718347944
0.21883649930817634
0.21590887644281062
0.2081888110656891
0.2016733900446004
0.1948090201983974
0.1841316531861134
0.1699143965007407
0.15288088428664837
0.13406742498024946
0.11813673904307034
0.1040916817284423
0.08947280270508434
0.07595426438610602
0.06366424759048707
0.054776880744707164
0.04443767972852727
0.03472008177539991
0.026479020591737703
0.01996394978601658
0.01648063526662007
0.014457041635432648
0.012791523008792095
0.013248256128954495
0.00934667625431975
0.007587999661882351
0.0027180316901439234
0.0
0.0009355252110268135
0.0009627448249665639
0.003351289741095976
0.010644711298575953
0.015425882782577989
0.02545055428459812
0.03148259235847587
0.03726517047162643
0.04461640551574
0.05400051339333834
0.06299896024219853
0.06999592102443103
0.07526889331441611
0.08046676698078362
0.0812659638921573
0.08767620415979291
0.09134151694297361
0.09679900949711147
0.10757896225177309
0.11583282831264688
0.12458882086302488
0.13587568746793874
0.1451760350847366
0.1521725229818676
0.15885957425083724
0.1649273017049649
0.16669303552567033
0.16917941063563527
0.17561681286981204
0.18003797390921936
0.18730061751288057
0.19431052509183636
0.20042552825282167
0.2058552652532944
0.2103908333041188
0.21434030618241437
0.21501313311812711
0.21844863827934985
0.2247233862815596
0.23054356219877697
0.23356560449208963
0.23302644673618964
0.23356192564643688
0.23509574817370207
0.23587009295481326
0.2373103282247324
0.23742465066844473
0.24155521220624146
0.2456519546235502
0.2461719159060812
0.24370807121609955
0.24145310536299083
0.24192262255060468
0.24061082556153787
0.2385019036480947
0.2320747096378074
0.23510783172121114
0.2505646729817673
0.26873717428645005
0.28120971271877354
0.2860635535544577
0.2871161204929502
0.2843318862259603
0.27427536273341413
0.25783655062267796
0.23940127816608306
0.23479822895964184
0.23910465688014637
0.24223515634151946
0.24170662284947117
0.23746333147449933
0.23614587613442867
0.23539162116741738
0.23403682622626512
0.2292017544225211
0.22657650195707588
0.22691992936050107
0.22746294828061586
0.2242448665969811
0.22282266360018324
0.22170485133765674
0.2219602812141503
0.2224371304705901
0.22283289430517977
0.22183072526984154
0.22353238401341344
0.2236272722309272
0.22362715106548475
0.22271232009208053
0.2225397128105329
0.2172943496802885
0.21198127351539375
0.2064182646731848
0.20357184785483232
0.2003251632990995
0.19854914489992112
0.19581868923808823
0.1962302567125863
0.1978683288404241
0.2024092893235928
0.20199209664517528
0.2049230031267467
0.2050716459308165
0.20225805841266944
0.1969374225767011
0.19126853749629272
0.1854948279419202
0.17947565331477838
0.17497588266183944
0.1754123247159337
0.17672007427882
0.18120071308995905
0.18416648770839372
0.1836992863743017
0.18598804057679957
0.18669950964872895
0.18676645892813415
0.18663665491829237
0.18823253957463212
0.19127068626486574
0.19322733154917487
0.1928539688703138
0.1918834450161208
0.18824003352074883
0.18483335119196112
0.18223912572927226
0.18009509780135227
0.17800946563350084
0.17681153359009344
0.1791745755744879
0.1775943665403911
0.178939271407799
0.17931914638713278
0.17999415129663326
0.18062175075212125
0.18374968547297457
0.18227011675070465
0.18147580742043562
0.17785329559422297
0.1759296939454718
0.17248205097872946
0.16954850741825472
0.1650189084694805
0.1623396262227662
0.15976243616257654
0.1582866171627795
0.1577789957959263
0.1592118171399162
0.16066461570023466
0.16279456123002323
0.16652473087292294
0.17088994238614152
0.17456066803100886
0.17572485889409972
0.17434304387040683
0.1708779868353124
0.16981274663041274
0.16633671205132203
0.16387927218971096
0.16033793757819453
0.15704212948195329
0.15821156489949717
0.15772599607039992
0.15608279340951473
0.15472472273837815
0.15487054326301
0.1568724523918132
0.15663647942147363
0.15556364564423875
0.15638934943652724
0.15677011143908928
0.15798886080880675
0.1585662979694974
0.15890157951896441
0.15950467168948013
0.16250549621685098
0.1628772474884748
0.16373218949010668
0.16505352790182298
0.17044840767491798
0.1755400416400573
0.1846618656579757
0.1951826006111147
0.2096335748027632
0.22690248844194807
0.2484127746342466
0.26976296229143776
0.2941415644884003
0.31714451419302025
0.3390305163322472
0.358430905358631
0.3754959782882916
0.3862227856971684
0.39542444152142614
0.4003141605427067
0.4037946096769481
0.4046201465231563
0.4046791272829365
0.4022975321857088
0.39955327768643684
0.396786173693487
0.3920587665516321
0.389622821158028
0.38741039376269826
0.38305810678694197
0.3797098524272469
0.37575804406772473
0.37265769373623636
0.3697071776544668
0.36902620189989915
0.36982941614241605
0.3720749527988014
0.3741847056927604
0.376855355939493
0.37689623087866275
0.3749301358583386
0.3694527836270423
0.3615596463872679
0.3520827611658613
0.34286599159162573
0.33408893423085684
0.3253747677140663
0.31487195522959294
0.30559117274228703
0.2971677726820177
0.2860587276588483
0.2744350161672833
0.26303717728294435
0.2501807020299884
0.23999110099455634
0.23071479930886837
0.22301083203395183
0.2139462721049458
0.20563259119677152
0.20013691594471505
0.192923527865598
0.18542926648141364
0.17930268469809152
0.17177075582529008
0.1678646872639056
0.16624183178805343
0.16505732879983556
0.1639410136216791
0.16425838034032378
0.16422124464883775
0.16262983525957764
0.1606182827812525
0.15969987076128292
0.15910079733926283
0.1575942934936301
0.15862138074525334
0.15825463156599381
0.15911284102203746
0.1594375659518521
0.15899184238791614
0.15979137026084003
0.1601565575160037
0.16164031281981786
0.1601947391892503
0.15774453594488203
0.15983834521513426
0.16066807795342145
0.1604696383897358
0.16098317507559146
0.16061544276014592
0.16161132372546835
0.16233330205819466
0.16310355717730515
0.1610832060077494
0.16215344345382277
0.16446511222087704
0.16530740959215112
0.16497061006825853
0.16567021315282557
0.16600027746004672
0.1672728188347174
0.16862600984606388
0.16796708715595193
0.16781936849528756
0.16899024021042244
0.1697858105278896
0.17086824192649708
0.1711099066098884
0.17212328594092022
0.17355135080562673
0.17418526431542172
0.17347352658573192
0.17213498781432116
0.17054876478673284
0.16930817026480924
0.16897206242287885
0.16886836149426068
0.16849979640831442
0.16857298011984803
0.16925045923492388
0.1705766230622972
0.17215026991019308
0.17189119263213362
0.17173701933421115
0.171013310324903
0.17125888707904047
0.1724837412302999
0.1722138161737622
0.17311551774316908
0.17392360393709633
0.17440437936614964
0.17499871859047528
0.17428384420973195
0.1742344118143567
0.17327502197353975
0.17349359447505255
0.1748485128083948
0.17457284355271346
0.17537985590397764
0.17448539890728468
0.17478493779312126
0.17564111588673234
0.17587004198600176
0.17609733015568638
0.17738189602717291
0.17865803992191626
0.18081727983901047
0.1813881789794178
0.18316531169565217
0.1821090123612036
0.1819838455930226
0.18038238707128554
0.1783808050889913
0.17781353613054127
0.1777207616254945
0.1776252006805903
0.17988815082082873
0.18053643954081497
0.18194860539475172
0.1817984934291123
0.18225045944201257
0.18221422501212525
0.1818280014175035
0.1807105389292558
0.18059782472449057
0.18054975992130232
0.1826765447992879
0.18344077747712714
0.18460307010525642
0.18698358728645528
0.18766532373146472
0.1890169743864005
0.18918999028264624
0.18783757659557251
0.1873456436998611
0.1871778185752181
0.18729748970623308
0.18665619914230877
0.18590419698071675
0.18593053384855934
0.1852386736342198
0.18605447344978204
0.18662535344258208
0.18685559070145752
0.18562284501432896
0.18554686369297033
0.18518771392139016
0.18452843959665294
0.18482980944124433
0.18540030163907198
0.1861269392584809
0.18696075207195356
0.1880054043219797
0.1885816709597763
0.1864937896761844
0.18613896701322588
0.18658438685300913
0.18562934981968035
0.1857236863363225
0.18539541322921363
0.1845142810808799
0.183769851236251
0.18461487292262832
0.18540502094236827
0.18598541910408561
0.1871662542140352
0.18893543431734655
0.18929164576116983
0.18964822732440273
0.1894169844651323
0.18778075873373823
0.1859411449429388
0.1856610465394453
0.1851139098944574
0.1852945185726132
0.18497701765010569
0.18507740468371273
0.18565000903258047
0.18585302512401755
0.18676492829154526
0.18599537010103176
0.1855977319317031
0.1859833028745521
0.18565785656510359
0.18565799902233227
0.18545210138617196
0.1852446406144045
0.18587772358923482
0.18605159945293281
0.18597812222018817
0.18557125230148833
0.1866775401995749
0.18679581375359103
0.18614037518010784
0.18577241699292757
0.18524644390843706
0.1845108619059842
0.18384150738464378
0.1833591150138806
0.18370880347687712
0.1847675771622219
0.18524795952077167
0.1856670463718567
0.1857959744830395
0.18623553872398835
0.18605030367990014
0.18626696660177233
0.18571620434557945
0.18627406348165432
0.1868623045616146
0.18699846490255795
0.18628132038951004
0.18601820286227522
0.1848969763138774
0.18473211747997773
0.18419917520817652
0.18408847045903404
0.18356546700850618
0.18347464465148935
0.18301100760434005
0.1825438867101134
0.1831639498484964
0.18383724316391978
0.18405665939133165
0.18426538440819817
0.18361656578294205
0.1835873853698706
0.1831808120717773
0.18175678969118833
0.1818068014007928
0.18133182116341767
0.18226940578258155
0.18327785928262597
0.18373189965795583
0.18380390065006041
0.1829399736765394
0.18343711202525095
0.18267588947152305
0.182923755355511
0.18391732324576207
0.18410563143177514
0.18410911488310702
0.18471315456191104
0.18441356067273776
0.18472689565506725
0.18398401839457934
0.18411016327001672
0.18211906791338867
0.18240771394019223
0.18193567615773312
0.1816655829818805
0.18219816385600568
0.18324047858988377
0.1835936073170466
0.18473225562533568
0.18516945948801414
0.185148970208329
0.18428921333607792
0.18338047747947514
0.1826123453934485
0.18238119888888782
0.1831868196942222
0.1830227730842206
0.18294276852666536
0.18261938781846312
0.18290200181509034
0.18329824454199906
0.1827913645280155
0.18253600759814537
0.1827808393105267
0.18325260199349963
0.18379620913991723
0.18305270331967818
0.1836021698653013
0.1831575125336403
0.18293738320535358
0.18251095858860472
0.1819890336223315
0.18136423204308608
0.18033867373295248
0.18088681579653604
0.1803719743210267
0.18084246749672667
0.1830221122395564
0.18390494502463836
0.18378148931965563
0.18403535200977453
0.18382457901238075
0.1833855281178557
0.18254341821458703
0.1820319094413147
0.1808711779118229
0.18145174479196813
0.18171055145670437
0.1808376488003443
0.1791924922953499
0.1799287984815338
0.1802621786008222
0.18122665728897897
0.18117524976458507
0.1819938026622736
0.18227167667628483
0.18237080289817378
0.18139508061911408
0.18049425032459257
0.18039460650465552
0.1821941930440061
0.1819244608001922
0.18190209802688082
0.18241518605498536
0.18328404547083446
0.18164306149410783
0.18121220775498537
0.1805636208318109
0.18056639370142105
0.18213147373733976
0.1835158795197831
0.18366350090693132
0.1846128382568146
0.1862260691261831
0.1869202323547816
0.1853979438863245
0.18552442484013343
0.18496828510124075
0.18429332895757963
0.1842061487094004
0.18327640366821574
0.1820900496835989
0.18247384079539275
0.18278817292259875
0.18292474546303103
0.18246013413979478
0.1841344590329602
0.1838831420054968
0.18369295965202204
0.18349253686509304
0.1830997118656526
0.18256374084361585
0.18252473610716305
0.1815252691364448
0.18165551294965362
0.18193072549681213
0.18344154946401622
0.18320417966901908
0.1833087910764951
0.18398435982111877
0.18438400998629614
0.1843255779668814
0.18364905553101266
0.1830659462249084
0.18300709569753698
0.1833051068644171
0.18329773986927306
0.1830736344291645
0.1836692620381478
0.18373304836505083
0.18354565936817116
0.18315634107404763
0.18287776215722404
0.18253267217679298
0.18269716259302607
0.18310043051577826
0.1832318836858968
0.18343964094878573
0.1837237075405592
0.18408408788826408
0.18452078532717
