0.7142152346869242
0.6230083820303364
0.5523337865336962
0.5021894990224062
0.4725732830080073
0.46348311382481155
0.49701899941477234
0.5309099444154775
0.5688024108555598
0.5944660022859396
0.5946605087003572
0.6048704998654744
0.641724258970535
0.608423964807629
0.5673308759423753
0.5740947373152543
0.5516098269476728
0.5303963238277637
0.47908256361631096
0.4163352475747669
0.39773033653093376
0.3820503959768716
0.36641044009496065
0.4087972671528617
0.4375442617890988
0.5157469009140646
0.5235621675661777
0.5698577826971082
0.5331131306810271
0.48791257875187033
0.46522088679654977
0.4213831703072551
0.38131091225937425
0.3756061170874221
0.38961149714581567
0.4187372836341575
0.45303378468710565
0.468073303371627
0.5013204093755227
0.5401653189555387
0.5661995540024423
0.5640415761011313
0.5608347990656384
0.5191682762412418
0.5570707855519437
0.5302705447771303
0.5172248285147474
0.5059788305201686
0.5455940614510353
0.6084333506868652
0.6597474302180513
0.6689803959782835
0.6941636368233727
0.6377049063055986
0.6305391171654372
0.5129979085590523
0.4139352889639918
0.358517855042786
0.3545894957292239
0.4028838720530914
0.48389483784192244
0.5901164645730415
0.6694389864428842
0.6935311826502594
0.7087900602519082
0.6357494943029388
0.5954972300782152
0.5357360693760735
0.5066156069356714
0.4848688641044761
0.5207548938982236
0.5976450218783887
0.6460638852244126
0.6583540190072413
0.6476089501391522
0.5716672374684565
0.5391381184346669
0.4438516763759449
0.42483346509060277
0.4092853205215821
0.4738324178999721
0.5011839012720373
0.5481992121418444
0.6172136255968723
0.6231772643610698
0.5751714274602958
0.5704637423758097
0.5279408689749696
0.5477142096971663
0.5233224560291032
0.4894109864333519
0.4668755518358455
0.4941184008537138
0.5103772556125378
0.5012449785817116
0.5056718733278882
0.49830980477742326
0.5217565910557708
0.5252441242872237
0.5035203241208661
0.45942968998963357
0.47882528623555204
0.4654238299721815
0.4097438510754635
0.4542797940511514
0.49494570864332016
0.5132906256929398
0.5776287564243527
0.6085662039018573
0.5992861506731714
0.6001577415254554
0.5614725127528754
0.5395064536817121
0.5016184816304804
0.5195842925595361
0.5068584825229928
0.4677453520503313
0.4921471857782067
0.5210915383417337
0.5200419556258034
0.5303949673952861
0.5231213217066699
0.5924642270039817
0.5752898991250446
0.5591301803402319
0.5788520421088973
0.5379529734529136
0.5373483211604749
0.5601149603807635
0.5663892660709212
0.5577749612817295
0.610422400320117
0.6588276004879762
0.6510530145120892
0.6934812542659126
0.772722507470495
0.7637475829340817
0.7476254268787847
0.7070617748837528
0.5865764030299401
0.5142109109414116
0.44516943827316796
0.40741618606949187
0.4042251603343357
0.43825151708217736
0.4958854654414552
0.5225609501242566
0.5586830984461213
0.589585590399982
0.5237570162253115
0.5298705929960639
0.4684182091504288
0.4435555269265338
0.45571477129691595
0.41652168424925945
0.41116894786888175
0.3811904029250696
0.470937148401743
0.5553492262337613
0.5578373779885695
0.6370874989865792
0.6256964769755854
0.6121783038090864
0.616990818968307
0.5190464271276097
0.4660855806162185
0.4137551611009599
0.4489258666618162
0.42293872280339784
0.4455336875666629
0.5007356255546712
0.549338049195561
0.5849222725709105
0.5880126757896811
0.5673981860009787
0.5895644764878984
0.5653743339236522
0.6027071181669875
0.5357621684491901
0.5538212954830157
0.4902441097788373
0.4313539045913618
0.3870672184903754
0.37430397362595336
0.3842003433978181
0.42127890888275693
0.46376793480180173
0.5554718575901383
0.6044500420550912
0.6479423931521083
0.5994049049869101
0.5452751866900539
0.5528792191054492
0.5531770881124894
0.5333671198332625
0.5314152032828349
0.5391875785362884
0.4882271026873105
0.48831104801624237
0.44257143015942424
0.40334414208291286
0.36508614961217384
0.3799165273639472
0.3517006565747267
0.3969687032141256
0.43042113567835466
0.43018303863384
0.48521628996670896
0.5719701625704555
0.6171841160576839
0.6708331892433965
0.6436810983516421
0.6557983765647867
0.6283042783316966
0.6239344364748421
0.5647177555279842
0.5488014359422272
0.6070794450481848
0.5981921961709512
0.6235313539727616
0.6053779749929179
0.5697726279936025
0.6104455670052703
0.5794686634352126
0.5275349037038252
0.5424278947104559
0.5290647922248208
0.5038549072339757
0.46278364318042403
0.49432746738295197
0.4909674245393438
0.5467609662038994
0.5915362221447691
0.546805664815796
0.5434620455743125
0.5751933689124454
0.5203656232292132
0.47952660943574127
0.42083383801747754
0.4233905349378538
0.41939510822749065
0.46873250664786875
0.5093291507301807
0.5127019482956744
0.5202831666136682
0.5313445156287767
0.52013851877676
0.5312704932981227
0.5245503356435954
0.5197464554257806
0.5088726959878873
0.5211799943088578
0.5255231869204937
0.4636955297862947
0.4060146352256825
0.3787050766096952
0.39909363739735176
0.5082148037627031
0.5513635744962314
0.6133412256902653
0.6576821396068537
0.6580223483923819
0.6408069736352953
0.5301054276295799
0.4642176636802639
0.3799039230375762
0.3685262973653715
0.39124626230758797
0.3867970771617667
0.46565602805551987
0.525273705582563
0.5180997909301688
0.5477569161869243
0.5308801150087583
0.5225487127180557
0.5092761742027823
0.5245143593224955
0.5233022690694779
0.5299741025649994
0.560038038564321
0.5800578899609145
0.545692228785478
0.5859829769559539
0.5537392481901254
0.5289119434753988
0.521499972467318
0.5171759243842609
0.49643350232675576
0.5109946523534539
0.570931522043121
0.638940342432274
0.6634201790819482
0.7212934168261677
0.7120125874655971
0.6951376799527017
0.6905470238821126
0.6571380165618598
0.6664663094332353
0.6716645337181857
0.6401608331858847
0.5991948669471768
0.5768440643259114
0.6149347454812744
0.6049220996530581
0.5837439077732549
0.6372449907026482
0.704910800132092
0.7878984761773715
0.7740481632927758
0.7211553301627412
0.6889115461505875
0.6784347401845187
0.6158569549361854
0.5659723989931371
0.5487878087012319
0.592187270144356
0.6625642367222586
0.7472459363924383
0.7537595181499914
0.8058689864611386
0.8129967250637011
0.7561578176129655
0.7961335474227991
0.8784882945305622
0.9230375546376349
0.9621103314252301
0.9843431669901075
1.0
0.928057447215599
0.8629548882994734
0.783116926742588
0.7419163614026655
0.8084812051169069
0.836138873509411
0.7742816446359582
0.8049877255421543
0.8087913520271418
0.7987262980194602
0.796542766808811
0.7166196306779229
0.6969037495124152
0.6809496903434532
0.5811280350972516
0.5221797550921328
0.4377363608060007
0.4301085025805388
0.40593989917243084
0.4218081521411512
0.4260091554282846
0.37413405134613753
0.4027083943407983
0.422502734176916
0.538789538355308
0.35492614168210745
0.18935981356520284
0.06406542628289819
0.0
0.025966448256896726
0.022517642114597388
0.0943267220227916
0.2964345848129779
0.40163608967868414
0.585917069546443
0.39230754565362375
0.34480178974650244
0.30555319429759803
0.28289335802431476
0.3145153441470984
0.3174680146594079
0.38521333458469775
0.4607353108478309
0.471592030382124
0.536305214619456
0.5570136942868233
0.5722947914413555
0.5684258473229739
0.5665136807331816
0.5561171094623011
0.5262839284262292
0.516574168306127
0.5294566585736492
0.5470129168707525
0.5831272544291769
0.5905945501898455
0.5955890754989828
0.5959828218351186
0.5641172627282406
0.5526791355518418
0.5901743936183516
0.5732654462277158
0.6172586696423252
0.6529888067667023
0.7170560773597945
0.6836170077373743
0.6448882253478748
0.5683902713756925
0.5363808719205287
0.56029031016492
0.577184039258529
0.49604435139010383
0.5271777551971005
0.5659990135064741
0.6029667016207815
0.6124187193547533
0.661511304450463
0.6751987768872607
0.6726393032209805
0.6806852767732486
0.6696211298589912
0.5982416931079136
0.6088635034830464
0.5813558825131377
0.6017952823361501
0.6232107833315658
0.6050131586731478
0.5992854627928083
0.5507023863306922
0.5484366287680809
0.5576586650860025
0.5220936777808426
0.5129696944827049
0.5138016095105831
0.5516874607770925
0.5715923235314537
0.5378836506685427
0.5575306653634272
0.5484359390189119
0.5348151438811851
0.5323494513270312
0.5210511219315401
0.5087598243220085
0.5258544291635843
0.545709525936176
0.5588411261790265
0.5683110996143366
0.5805363115177766
0.6043402797938466
0.6123300954914775
0.6229563176804906
0.634500098939891
0.6056704390318314
0.5753024550745857
0.5729667934705255
0.4999645093476435
0.4871821379119778
0.4547395989808316
0.4508074266043471
0.46202998969055503
0.4505802326819511
0.48272041192985915
0.49629854779584703
0.5046948451582551
0.5514879023497227
0.5217528312380472
0.5234032690476144
0.48484180648515957
0.5290811586246108
0.5332823178112985
0.4959093070741874
0.5180194318198883
0.46481126264315054
0.4265834402591473
0.4373601869192048
0.44753831677591643
0.40959436050990616
0.41259011168119075
0.48964173820331613
0.49968024278932366
0.5370583208820835
0.5584502654997886
0.5183419639481979
0.5233766468904367
0.5624686821749109
0.5767916859032576
0.5171472741183383
0.542915116252872
0.5624074598854849
0.565303522558874
0.5492328488710265
0.5262671490989496
0.5138026666070348
0.5399581380642221
0.5592900607084667
0.54240207862616
0.5322197957782875
0.5542718824901761
0.5604881148613886
0.5208147169487746
0.44276284283079637
0.4779047652176574
0.45715910025271855
0.4659406923083622
0.4408262328209067
0.45942697386499615
0.4935521499981562
0.5057844311069015
0.5447422581396585
0.5653498308740216
0.5701989465688669
0.6309938406502528
0.5812086510689604
0.5309502827983291
0.548346763809177
0.6026891958701992
0.6074310826941796
0.6268698883229711
0.6101992762562548
0.6179583981736094
0.6327831670147096
0.6014939130615685
0.5488488261987089
0.5038359932183817
0.5776857200080321
0.562396420396191
0.5453459203053029
0.5076711622953073
0.4194945795837394
0.41425662916571593
0.437864088212206
0.42196460062092594
0.4320193615786002
0.4675871894646828
0.49846734754447075
0.47600524860685717
0.49221582914011774
0.447495010277736
0.43535383136932365
0.4726417065608803
0.4987077095073391
0.483245428564894
0.4699122167425511
0.49638455760046896
0.47134096671155273
0.4561285167099673
0.4866014577943813
0.5120321723272673
0.5419073000227197
0.5433705741450355
0.5409711540027387
0.5374117738092874
0.5720849826785168
0.5609283044025836
0.5304958185539478
0.5500124931898042
0.577612064010749
0.5913047860278972
0.5583049158885339
0.5634455458510288
0.5610291305950796
0.5773882746142786
0.5688670482067981
0.5113575328567095
0.5257971747215269
0.5202413632938397
0.5108824617220306
0.48728891590231826
0.4752451612962506
0.5172033155352247
0.5031665172772213
0.5437885015916778
0.5639755737925937
0.5760552135115049
0.5936674604611214
0.5923759412609698
0.5763369878919572
0.47293446056685084
0.44347773537190344
0.4310697261215997
0.44861995116152625
0.44215073955746526
0.4391982167030675
0.45044964313761965
0.49596621008888164
0.5689670623204776
0.5474227443825616
0.5326527509188386
0.5785273550906308
0.5650587051640571
0.5779192930789708
0.5198783172839884
0.5115102229368566
0.5093057292138453
0.5617359464099551
0.5430858523116311
0.5249855064304672
0.5321993283697692
0.5398179983211407
0.5284392544280982
0.5296838281377637
0.5125149431352899
0.5394807641080859
0.5733079920010775
0.5944116816710843
0.5428328181775333
0.6004155023916604
0.5615340089962709
0.5884100118262694
0.5812195026016791
0.5369687730543478
0.5215211013644553
0.5168924275242718
0.5274555330623852
0.4833279771400183
0.4495705806592427
0.4681218477618321
0.4068806321177461
0.46399271848903245
0.4897795777599963
0.5051753739191008
0.5397218012522992
0.5435994859157108
0.5580938561708508
0.5515113427586327
0.5456976992440168
0.5074634154326282
0.4457429524085999
0.4396049763191955
0.4714703484560403
0.5105946781595082
0.5091655896322322
0.49293317015799565
0.4950877663362519
0.5234725710223697
0.50631451163384
0.5017507965710165
0.48472808263492223
0.48712472786434935
0.5669328292278689
0.6260847407892367
0.6504690025543312
0.6333403637439702
0.6458548544591161
0.6423868226116896
0.6315421365905494
0.6037994185243368
0.5603223349192716
0.48597116382720895
0.45404838696486954
0.46739457362191156
0.5031752878300735
0.4653225586424298
0.46164241677565
0.4761218759810323
0.4585750878645839
0.42829424153658663
0.4545011959160189
0.4310654104293876
0.45106252414439085
0.5139476246067917
0.557284959378001
0.5533594173037543
0.5395201054353793
0.5641301245357184
0.5686554369831319
0.595987905433577
0.6181554758797262
0.5931075178009343
0.5618008645814168
0.5018412589088693
0.43875717083012694
0.4061374126596908
0.3748412430839101
0.3982633346276983
0.4595563859665249
0.48428638114002465
0.5040780836301215
0.5540943505327419
0.5661024855361504
0.5860606981704639
0.5807478810957889
0.5829186454918333
0.6045020043289591
0.6393002176785683
0.6742217108645863
0.6242527171042853
0.5807892952864789
0.5330343548514551
0.515232126534873
0.48430788014147885
0.46516921435132347
0.48370883985192153
0.5408008317507104
0.5410722633003008
0.5477995925326545
0.5119643916006618
0.5327667955223405
0.5323395583967719
0.5968261598773745
0.5643296128344875
0.5493306859379024
0.5535773785990744
0.5392826921841298
0.49546563308527536
0.4517009826089627
0.44752042852494517
0.4791651052267915
0.5092869648411811
0.5030549117754747
0.4589726340826721
0.4440733377697721
0.45073440276989524
0.4697292709523703
0.4794319153170961
0.4590192108835607
0.509372742103774
0.5311115824278043
0.5771949921014473
0.5801908463857086
0.5998414348208186
0.6114577462613632
0.5809404665901122
0.5666803043768706
0.5199151259454057
0.4819661413662311
0.5054606559576363
0.5025759413774646
0.5339270807509148
0.5812422401658883
0.6053515046498316
0.6107039008480252
0.5848979856704036
0.544781349036469
0.5380920518588236
0.5232865360710753
0.5057959549899053
0.4546532426945737
0.4384577833153713
0.4312399232657545
0.4197957651890278
0.4275393805903958
0.4158849002748616
0.4184238445937599
0.48209725452935376
0.532799431617336
0.571409800701953
0.5893616618855855
0.6028517605216409
0.5628292858266216
0.5583224789290498
0.5417017436322745
0.5050177624762238
0.5074644465351293
0.4998435947905788
0.5420424130788033
0.5930691063789253
0.6021574226143924
0.6097912782100995
0.5874868569011238
0.5965879846497849
0.5664487211289253
0.5290887358930562
0.5253168227658768
0.5208475948469268
0.4919722833610495
0.5110836588392678
0.4860898618394604
0.4818345691308995
0.4976231508379306
0.5061739148016278
0.5307179867187781
0.5302244755514558
0.5345988289075179
0.5328622530063982
0.5177923723345763
0.5381134807968149
0.529161083333276
0.5084400680943275
0.5076790193255906
0.5348274725340946
0.5603062937398838
0.5486643779937248
0.5617188455513532
0.4989169491192037
0.5330933976003821
0.5225193658346629
0.532403309506313
0.5020917105214764
0.5074425232550983
0.54611974197641
0.5629043343186261
0.5656721535860976
0.5970921510434505
0.5310807896099292
0.5988253245082538
0.5425075845121298
0.5015525691852838
0.4324092645885457
0.4094381440959951
0.4149473761145233
0.41964843885383335
0.4247073158552781
0.42242853553976656
0.4257602912579829
0.4634802706036306
0.483182329208977
0.44289167420124936
0.4759507938496779
0.5771125629450037
0.6281426683263419
0.6294469598243826
0.6875249183857978
0.627609426936379
0.5897877450068257
0.550098864875241
0.5333795445542701
0.4524998072230147
0.4757006581710627
0.48616520354484694
0.4665338869773195
0.4807417458774031
0.52273622476888
0.4991897020305199
0.5126247065928671
0.535507842877099
0.5585049330789199
0.5915019816210159
0.5416089082223122
0.519334641122435
0.5127907052784312
0.4889353918518483
0.4781869210762514
0.47449269478330447
0.494011504747067
0.5256222018044846
0.5636016624526202
0.5857053043572856
0.5670257521864969
0.5554879310902432
0.5395683393775079
0.5030019057813775
0.5242390077751221
0.5273113235117695
0.5333002868606065
0.5362256899961805
0.54841575020943
0.5723513431807488
0.5839620895290393
0.5296354846768808
0.5168880260619452
0.4825146362592427
0.5205374854044775
0.5050215697228361
0.5141245406999049
0.48551731448309765
0.5180734391054699
0.5280922004621308
0.5627314695203406
0.5634191697516717
0.5656784348902802
0.5444898721977933
0.5605773741000951
0.5352353681712054
0.5447968263028635
0.5017661395523577
0.5138046780211556
0.5097559169708544
0.5671563579239536
0.5476698263905133
0.49360138405570475
0.5053908847969176
0.5187017669270272
0.4985204634282747
0.48656878058510655
0.4680749421006027
0.5011004516628383
0.5561765753825599
0.5810038542051524
0.5392933443136556
0.5546086414280285
0.5698715140841437
0.5345682303560316
0.4440288505757125
0.4081392460379586
0.416358302225526
0.41613127769421593
0.458154363039277
0.4685393295556835
0.5049865559213876
0.5607159534404851
0.5473251550843602
0.5143453614588303
0.47899408518860925
0.5105332785111157
0.5009390153675595
0.47848023329909106
0.5069490066723821
0.5057849966481718
0.5334925721603485
0.5798646074403403
0.6030733781375244
0.6147208574831318
0.6337389502207778
0.6197565766526958
0.6134770299515153
0.58605218037415
0.5661480585170597
0.5593803053408842
0.5660393490320015
0.5467346360030495
0.5280150529397493
0.5350433503928594
0.4862676107921331
0.4270919181349067
0.46244166501698847
0.4660525064200974
0.5427784649252692
0.5725929469050007
0.5787643643765641
0.5387528632386114
0.5265572118808686
0.4954564772521149
0.46208010454278864
0.4499873389910814
0.5016665722546033
0.5203965017626678
0.6101933216913764
0.5834498389786621
0.5848832603273044
0.5826168323956499
0.5681147422881117
0.5238322177730005
0.5196454214967818
0.485308304606972
0.471294404397088
0.3991520784974562
0.4388717658773069
0.41765268938696054
0.46391025004276637
0.5161920330456589
0.5475114670329692
0.6098421199186389
0.6263411731923412
0.6086075459430705
0.5978537737861933
0.5637351497790213
0.5616499457288838
0.5406753004109927
0.5148577029028362
0.484194778520821
0.44868423785502815
0.40832418324028513
