0.14040275869748417
0.2329186631446822
0.31650552377883084
0.39116903964830885
0.45691646083048876
0.5137558416824782
0.5528531016410152
0.6095551243969808
0.6458125473286631
0.7171017027223707
0.5561315323166854
0.6105731663426541
0.4777216030708361
0.4230707787305254
0.3710336836429613
0.40162693472844113
0.32314438621344516
0.3196400352203211
0.37535481339760135
0.43865162476007924
0.3666191693848902
0.47985318108040875
0.43570425086136627
0.41567953790737583
0.5007787907048685
0.5624297308840761
0.5480974073300331
0.6031839771239188
0.5923596533550305
0.6066047480271688
0.5570502895706043
0.5340736183374392
0.507877264962778
0.4636004406169743
0.5041539819874702
0.5158954710658511
0.5958056168622579
0.5998412011791866
0.5826464217421033
0.5310834152000298
0.4973920711999953
0.4456891181032919
0.434518789779405
0.4642526729325091
0.5181486312987595
0.5137104526640621
0.5118845889709408
0.4966787130439395
0.4888803856221785
0.3883523343537742
0.3888241182320688
0.3166736087078122
0.32990260127466237
0.38782581788368087
0.4526868082943646
0.47824797495016574
0.47239147762030365
0.5513886699327893
0.600545694639051
0.6816382303822839
0.7036899145653154
0.6919183649392924
0.6232747833196519
0.5398623237623995
0.4361935139384667
0.35512001263483567
0.234407292370881
0.26395462529201064
0.28935511264303443
0.32374190212735804
0.31434569090144554
0.32219236550976754
0.3519379624624509
0.3926271550157973
0.4862243922857111
0.5285495603193218
0.5164556016284437
0.5748503480805343
0.5888937496274611
0.5477053546017017
0.6207020449200988
0.6522072299727131
0.6742725009430018
0.70040755791338
0.7064393699334323
0.5166434210727564
0.39222836027766517
0.32237837249734735
0.2951525091485814
0.27676832593339024
0.36915690368396825
0.42407024404708554
0.5146937257863998
0.5847315729287893
0.5588218795832219
0.4842526380426584
0.4343574283639031
0.4282750744185613
0.3979980058272974
0.31500159978593695
0.35493010481381154
0.42103001080400926
0.4940878287278336
0.5359749979324403
0.5558516766960887
0.6085900290670863
0.5085633323717816
0.4461281747759075
0.4090489390071645
0.3289440252292041
0.3520341866107609
0.4339596560233399
0.36620167380086455
0.4158335130527879
0.4978145292307751
0.5624587499917827
0.5339584302633599
0.5047935161788788
0.5037158539812301
0.5378591566166158
0.5117473166416824
0.6166397001286112
0.5880949977184184
0.6234507986526228
0.6599543675981965
0.5801314692124365
0.4775800326447346
0.4440954394445431
0.40866393602225337
0.468785817241578
0.331190201156314
0.39347517440338986
0.3701026543344433
0.32044437698462286
0.3938722089172285
0.40490877400084024
0.4112777522154519
0.5501939519165375
0.6231212885106368
0.6654905747989597
0.5703389268042172
0.594976768385955
0.5164680624413673
0.5376261839593524
0.5553121055338593
0.5789038041880162
0.554501319402603
0.5204546080279454
0.47758189958272884
0.4039572076829172
0.3697553327121869
0.40942232774223913
0.4617014508587003
0.5074462597755689
0.49073012212871225
0.6134633811471677
0.6255339426226041
0.57137091406957
0.4264201425448923
0.3202283984143404
0.26336992783154856
0.22663772907994797
0.3051292476165177
0.2519627519433111
0.3230972704694157
0.46966799955298305
0.5623453555499318
0.5867194121938176
0.5056356177008554
0.5656719540914615
0.5471220728235034
0.5146879127781505
0.5027456914119549
0.386164841457723
0.3741398069122266
0.3947593909297646
0.4526013602100236
0.4230628671264314
0.4161844860219843
0.48991437729129317
0.557857386193245
0.5141021036309474
0.49406000146805257
0.5252032391919488
0.5969474124510903
0.5840131313088767
0.6423013457179472
0.55720678940917
0.6014989898935597
0.5590690307990012
0.4227037683241241
0.2351803628686893
0.18609737280942978
0.18289836026916464
0.2459227114866959
0.3046128425329281
0.5184028258978755
0.5609283408158308
0.7114233198248998
0.6209284880678073
0.5556145094945306
0.4965658588048334
0.44723460052680025
0.3622073091083064
0.40571845039542137
0.4371775556404177
0.49419156239540607
0.4017176319760824
0.3670775833703807
0.2860874043074676
0.24672237278869733
0.23525086344736446
0.2794526832157661
0.2609646498790512
0.33037198403656326
0.2850211138843504
0.3621221127371668
0.47619617941831444
0.5561774759319073
0.6802980675040232
0.5914880578112863
0.6088503306504165
0.639847611006266
0.5204073946271026
0.48796127042453435
0.48907581059988503
0.529316010399634
0.595030866330836
0.6526774203841325
0.7220054027298544
0.6244496044329388
0.6655919617247811
0.678423782023299
0.6162587829164008
0.7006048390100228
0.6308384624798459
0.5941612168243976
0.5296938769705679
0.4534943853614207
0.42920929740288394
0.39047828687075525
0.44951350797851813
0.4183557300801676
0.43511446538336335
0.46886055228593976
0.39161026785546516
0.4696045662279574
0.4535606596558967
0.4079541649224618
0.4405715461194469
0.46794240047747837
0.5242935605188761
0.5167722435405494
0.49596827019046663
0.4909282707161019
0.4340940772357952
0.41598751043234944
0.38106047501533985
0.43597401280643405
0.39982825979442926
0.47829205264519
0.5233436759331969
0.5652331569194419
0.5392568128640065
0.5450954113095984
0.5287775141307466
0.5539528178660769
0.550059926421906
0.5382621661934331
0.39582858825176626
0.38126653764016405
0.40922594500981974
0.3958588806252839
0.35414777908916917
0.3848230934866068
0.4140226710152261
0.40654206107405716
0.428285652850219
0.42018056496622447
0.46419549848590586
0.5113168023469649
0.5610958935392144
0.6005484704991555
0.6050547666789575
0.6613854993887747
0.6720333436154393
0.5717658910157534
0.49869149298039533
0.4868067786902219
0.4644210725323473
0.43633153622085047
0.3806133973594535
0.39183817220682593
0.36866695112315656
0.352454131355145
0.32330469888916996
0.19466993996499085
0.14099255275004552
0.29821129402403634
0.3566262342944531
0.40414160927972914
0.43235849651024255
0.49442933590809124
0.550130062532655
0.5346161087130478
0.5454758955843848
0.6064363929562487
0.6056622013733461
0.6696378825678684
0.6064344881630501
0.5692556019433492
0.5987107862453298
0.6006726846467234
0.528902145522012
0.5604676652286805
0.619779103020249
0.6940721791094079
0.525504380232902
0.496133460961865
0.4863785337216299
0.5035129328241541
0.42495290621117465
0.3745423207122393
0.2903475187448711
0.3158049376844985
0.30371348192493397
0.34316820583373797
0.21738894879153395
0.3845526702262018
0.45561617193186704
0.4446190698406938
0.6301189738813896
0.8274673066595958
0.9333810104076092
0.9759347922764694
0.9654887248653325
1.0
0.9078037489691249
0.8799337798359357
0.7610886082704729
0.5855727483534284
0.6508562989852557
0.6304193808379209
0.569671788060347
0.5682915171893281
0.548659593184988
0.5379423813178507
0.6154734444883528
0.6083029285782696
0.6587392251073898
0.6511770152969705
0.5957378651782492
0.576627732835851
0.5217726720097864
0.5478031065312786
0.5294997948401385
0.4544606474432587
0.5094970549217475
0.414986464135244
0.4032275191198274
0.4010178451014944
0.653042535241706
0.37188743957313886
0.16733739445094203
0.06474694593426905
0.0
0.04146863382469366
0.12684702173772355
0.2270109615133102
0.47662457775591704
0.5852793857692481
0.9099750005964266
0.5367632829062798
0.4703510562363178
0.35194663734205145
0.21465608891367194
0.2219690419432975
0.2338277192930792
0.3433938978083967
0.4612063375890058
0.48264259432735945
0.6623261717063316
0.7600729823696153
0.842024535548289
0.7498113053451124
0.6742510159226067
0.6233845977852159
0.5397223159690745
0.47911633814386284
0.47587541517762233
0.4831664016045817
0.6189918539769762
0.6117833964634593
0.5077079108168698
0.44180412240268135
0.4083694947606658
0.3894667135596655
0.3503452502723675
0.25595515042059175
0.27939408363057305
0.2963669671845155
0.49941655939400115
0.46032616537052795
0.4708717373350188
0.4849761133503349
0.5537671886220473
0.6419015147336558
0.6220841075321952
0.46655038338574856
0.4507090002682813
0.4306733711176208
0.5005781314074101
0.5244938644575197
0.6465464945551361
0.6527415030938539
0.6720402089556936
0.6782495347687835
0.6272349335178716
0.5547259226741224
0.4853414054044726
0.43852019738635634
0.45614445982200974
0.45271678548556943
0.46794302821887174
0.40761895365345463
0.32458645861783936
0.3682175730935148
0.46840505177597347
0.5622486173875808
0.5639541712827821
0.6072074654954545
0.6324091686411709
0.576055428825209
0.5020207905250016
0.440626141183559
0.39254264837395697
0.3546136367951965
0.35798647089808316
0.40055730122547445
0.38639614640473885
0.4146593912386024
0.41644086995915414
0.3999234695895006
0.4057923943340105
0.4768352959206568
0.4831232490105689
0.42938817128659923
0.48579810463875533
0.5189715352928391
0.4843999962473579
0.527931310548768
0.5080765478583082
0.4625938307621522
0.47014960737112105
0.4517055436979082
0.4618333501251219
0.469234220190477
0.5139181688663016
0.6272631262242306
0.6249940080257167
0.6495783425698215
0.665360523471283
0.5822635196849538
0.5377209823576112
0.3874584890942364
0.45363507620150306
0.3832296002599247
0.33619353752646935
0.40912707653872155
0.23775221914240713
0.19347243542749606
0.3043607947213426
0.34050569144111326
0.3454473825891212
0.3600252108471205
0.5760290893638866
0.5954143089928485
0.6697200772566221
0.716534385638968
0.6200410280939258
0.5578388330630406
0.7057237344731938
0.6186545464351688
0.5201640044284866
0.4462790313373572
0.495552558251406
0.464864337070914
0.49938070004511487
0.49663912091222545
0.4441759120691533
0.45442999559139274
0.5329525439287687
0.40276223155562985
0.4087642562837862
0.39340071821755934
0.43218127967218545
0.4167900012950546
0.3540561612279954
0.437413256400337
0.41645545028187153
0.4431085736662587
0.3858655972965685
0.45790362878646185
0.5358985188245002
0.5487692779260218
0.5258669858754215
0.5335474325561701
0.4976501515340211
0.6159630148192177
0.5269880551795999
0.4265598992387108
0.40782806072285926
0.542099515667207
0.5973570855096394
0.5841076149173471
0.5796617427151192
0.62965292114046
0.6126259437518029
0.6224764666268109
0.5601148694730644
0.479501141885439
0.5737590031787903
0.6120629658301129
0.5818662944300007
0.4276104871410488
0.31869621991609726
0.29969681106365426
0.1801685669201319
0.11367780864812271
0.1510341478548921
0.21807285442092963
0.29730407394237374
0.3027841126235878
0.37105423780426905
0.3505701611595985
0.43890109891085033
0.5465810991038448
0.5418847351515251
0.5552767552903961
0.580833893665771
0.5667692881762578
0.5238965593986004
0.4950047228078234
0.5038165728368793
0.48563185316294516
0.5268494189659528
0.5132277554624466
0.46466026097895985
0.4426241645547333
0.46648708676363154
0.4368691473821256
0.413296378611663
0.4560457780267874
0.5217345603917946
0.5652536742632615
0.6031193190864221
0.6732393878308445
0.6656487278192307
0.6560834172919077
0.5703794125407322
0.3974229526462076
0.4057796249790454
0.3626028380078289
0.3412237995530904
0.23302496916588436
0.2399208366599602
0.3168749081339507
0.33335759992674874
0.4192303100934783
0.469337278087499
0.5712820065301227
0.7279982940590389
0.6534309726499433
0.6476810765675595
0.41200485528508435
0.33574861246416493
0.26976579067389544
0.28574304921857807
0.30261827342208
0.39275755605277896
0.5128584237007612
0.5372763808789311
0.5379292169348201
0.5796782586272891
0.49356662221604747
0.4904491452876137
0.4503079682732267
0.5074344710881802
0.45729121602339073
0.5138850858484013
0.5539703740173867
0.5216314005349435
0.5194822225815584
0.5551832042675402
0.5102903849023178
0.5222447025857377
0.5716075178343691
0.589699137036178
0.5450695424825847
0.5473087137264617
0.559635363746208
0.5569770983579407
0.5180888062027225
0.6040496791854101
0.6145908716740668
0.6673290430236566
0.6959780395226307
0.6609720292584113
0.6100403752627067
0.5241057632699181
0.46935977013221764
0.3372495463819209
0.24590894474673294
0.27384052348260246
0.24734140127486026
0.3361184756973696
0.4852959381517791
0.6625178792576767
0.7172058953038641
0.8144899059475358
0.8113694873632898
0.668654188528827
0.6048402220141976
0.4636384728538854
0.3197237431226106
0.3091714787858752
0.2762183100104953
0.3245161221327212
0.30708735591704034
0.3832831878774546
0.44471094754795276
0.4418273101575848
0.4788908776004584
0.42529213196221355
0.386415827362574
0.37892411621996214
0.38757873162630496
0.45448955967830873
0.4708930795867582
0.46013473510019604
0.539987739761531
0.48414206426745454
0.5427043370974761
0.5112817751032682
0.4614831816906865
0.45553423826644124
0.49035694884312453
0.46581855196658695
0.5483306023439026
0.43764541202827356
0.34138276958160074
0.22043461888388102
0.18334079509739265
0.10587695850925592
0.202950929888108
0.2564425797173715
0.28873251865076643
0.4172317661499599
0.6385036491670864
0.6088568332891349
0.5950011156288642
0.5995775099504272
0.5525659938224559
0.5284392973660463
0.5889088409016
0.5176565189370859
0.44349730402301796
0.4527607233114005
0.3969832292634807
0.4063309179941718
0.4161101613920112
0.4572567356072747
0.41906532771861704
0.48800049169747
0.5342168206268502
0.6184506910026415
0.6302969203880759
0.6351436973993116
0.5863854956596908
0.6100574405823985
0.5582179129570978
0.534906474633141
0.5356224477178206
0.5077499025120501
0.4905479344498398
0.4961779638292982
0.568552369557987
0.5671564074013686
0.5885195881592101
0.6556849645129366
0.692237543650921
0.6044964759730229
0.6018788168638464
0.5329031347565408
0.5463339955603754
0.5709291779615813
0.6398567038720668
0.5572700216549008
0.5379091524454638
0.5944468659583368
0.4223440457407189
0.25510346658563415
0.1646953710356503
0.16356814784804113
0.19962009452075558
0.31803270055270716
0.3363276920994955
0.3538854443910804
0.4336827054271953
0.5336859219535312
0.5255408331708069
0.5105817138145814
0.4247811249343083
0.5050340535319656
0.5885317926870468
0.6087696103157271
0.6036526167998046
0.6221186898934982
0.6120712293093911
0.5390517340196993
0.4534952682855771
0.3345275031754015
0.24249117402498852
0.3514490358754341
0.4019841564412289
0.402276173558281
0.4962171817244925
0.6096453976023608
0.673277810403356
0.6266123149048587
0.532321545042628
0.5344436804989725
0.48892905373415396
0.5118165601434719
0.39945665453960977
0.29093163608570255
0.2742074296816018
0.2951597522313701
0.3170055738194762
0.22474921836100753
0.2744271047029229
0.46604227118593466
0.6699679744105099
0.7372866403039332
0.7785676963476846
0.6973586703558025
0.5705989716689577
0.4918900412724334
0.3830909141481927
0.24825310983261092
0.33222733374488794
0.38918744373386155
0.47468187652228494
0.5158291283819191
0.5988787116182912
0.556370765340425
0.48213437061546305
0.5108313973788998
0.45000422311464494
0.43131174944941875
0.5221601807370566
0.5414264564350076
0.5150825591117151
0.5587986468967372
0.4388316986823265
0.3721089657797431
0.3022579606361439
0.28302287243698687
0.27484774850359217
0.3197707143613945
0.4418170276993893
0.5262241696335025
0.5263109847570651
0.5730670893364532
0.5213291401944626
0.531959813895436
0.5437133832236937
0.6087619228851203
0.5961259651896331
0.5311034209070411
0.5455787675388866
0.4441663802173633
0.39763143171402293
0.3683677721124463
0.3980352672152109
0.4117988791099672
0.47684125845751996
0.5495544157113075
0.5495500200474124
0.5876964718256689
0.6108513347666236
0.5666216569229935
0.6293748911421496
0.554932876157179
0.46999639479531213
0.41697098796031
0.3793386883515006
0.3907984287614402
0.39512601085902554
0.37167734435633787
0.33568865098226025
0.3967498524830578
0.4166731802306055
0.373917673737093
0.34489858958652975
0.36512347230574227
0.49854956116924626
0.6097709810152305
0.5335069859122171
0.6028859502881485
0.6105905694524574
0.631534692005985
0.5366128203016632
0.5233119148739966
0.5034330248978458
0.5525615643251701
0.5949580119430988
0.5942144360237444
0.5142219527053062
0.6042555039777155
0.5766724485951324
0.5303221470824819
0.41715695731394103
0.38316344395923146
0.37946824569098403
0.3231958835801441
0.2360329075587218
0.2267390564576271
0.18932457371836678
0.19922655708330128
0.23730704095538147
0.3028959899625808
0.3629740697534027
0.40704217745191823
0.49598608202130356
0.519251013703778
0.5008677929895166
0.5442071040546687
0.5417907025570688
0.5367886858628937
0.5871576325014642
0.6059091100369691
0.6002561342966033
0.6258252963540345
0.6953816449923185
0.6777202136831991
0.5723169593984065
0.6193693731524842
0.5432491662084719
0.5137434511941463
0.48378504818719253
0.522952417327971
0.48899945685796764
0.5556897930862821
0.5981159190885348
0.5525448751254092
0.5240564947648836
0.5181978444585781
0.388365170987595
0.412954250864174
0.3702248231396569
0.46291177405726114
0.3817543671518141
0.4908714904473492
0.5291930777281341
0.5482813278937524
0.45753079077958053
0.3396529861426058
0.2807373560752425
0.3196607808993719
0.30261837193980473
0.35488658617805124
0.3811368977932962
0.5121281333056732
0.6057703282732788
0.6549342570740159
0.584558458101393
0.6062409032605934
0.6042338865361728
0.4843311447601136
0.39492491838854815
0.3251261506576424
0.337907376951321
0.35595206623118464
0.4297002326661194
0.4913706891554638
0.5008054152361553
0.5507806667546907
0.5226983389588347
0.3598104782166331
0.3287349192946602
0.350656144711961
0.31808645258405854
0.31569759553986104
0.4346181774704953
0.556480837202411
0.5385234935968832
0.5909989396967185
0.6192582139232552
0.507859068271467
0.5190689003456123
0.46823670322335814
0.33524649489071906
0.3080536767580155
0.35588488648150546
0.45667556775036383
0.5301143534141806
0.5998506385884945
0.6223529128924083
0.6297507322561504
0.6574749435942104
0.5749932381621877
0.4875408190684325
0.4815113580175301
0.4849930010736899
0.4726871822901479
0.4535233895913489
0.35273717705423496
0.3286312134059372
0.3568839614464183
0.45160696274158724
0.48091767691505033
0.4970603943637623
0.5401192986705861
0.5694118072666192
0.39916017030905576
0.34297192638324214
0.3474030656903069
0.38115410003325345
0.45285966852768583
0.5823395250931918
0.5613007568562661
0.5361915015628028
0.4623516316264305
0.4530504357325482
0.317782131937998
0.3369789477185952
0.40901001318157276
0.4419287787724204
0.620392107079587
0.6224649715023336
0.6445127606563706
0.6119262832220601
0.5704939175585677
0.5114327573011764
0.4875246228284673
0.46137167393242307
0.4329717076010116
0.40232262312718703
0.36942270600392174
