0.0
0.15597156243693153
0.2963575928192044
0.4211605195503259
0.5303824835186304
0.6240256255337466
0.6868422331630321
0.7434811570188293
0.7854686074014687
0.833817482439232
0.8897066617850369
0.9550654092817518
0.9850263020169667
0.9931495587778312
0.9728373503395641
1.0
0.9761176152650571
0.9956213655755158
0.9797742143542498
0.9650230981819963
0.9464414980752326
0.9266749536945174
0.9010357046622237
0.8565135477667004
0.8166454006842566
0.7767605572234018
0.6942768554138576
0.6361682250185658
0.5469936477212239
0.47972556646768405
0.42067161060086555
0.38857647149184255
0.36597880326603427
0.36621711944263224
0.36669675967222803
0.37141053617101244
0.3708784506088697
0.3617941175121215
0.330755070597285
0.29181607836158935
0.26007217495047896
0.24364289251210988
0.23349072815543867
0.24010479922708058
0.2593072893289148
0.2925990329594938
0.31035645393699657
0.31612603885150825
0.3068371106723854
0.29070876421285813
0.2807180430023048
0.26262315728625996
0.2621568654739173
0.25354775398430734
0.2645740248581736
0.2473098546773014
0.22723010475317384
0.20433023092452893
0.1930673643625872
0.18400567235270948
0.17529849834397387
0.16538926088499023
0.15403479187882396
0.15513018367087117
0.13630297532137398
0.11596851494603341
0.0969723097530343
0.10832182286733233
0.11278708281348471
0.1314302371796794
0.18026626065806722
0.21514363901916467
0.25779137040805944
0.28344858506331894
0.2758298297623949
0.2768210460429223
0.25088167023693747
0.24030595082237877
0.2207228465008743
0.2289342870923076
0.27114678110971946
0.2912676043725928
0.3282294350218107
0.3509230671870333
0.3543662624780675
0.3380790775993372
0.3069365757617097
0.2766261503145031
0.26858228978562576
0.26975542432283217
0.262064470172543
0.2548680025695031
0.2672620098826168
0.26042596464335643
0.27414155271512997
0.23841214088664978
0.20744622449558514
0.18949088925822133
0.15636539916601647
0.11793700656242946
0.0990299154217988
0.09390804286389638
0.08515419227876837
0.07955211217439628
0.11765398213739503
0.11205562173281026
0.11944448671310422
0.13170299903127153
0.14259034073999274
0.13058582015062548
0.1520387276244237
0.14658019182076382
0.13594066711717906
0.16613629720199558
0.19129590552367373
0.20434692165201748
0.23786783896025487
0.252297894194909
0.28065856715618476
0.2689433409759609
0.2506332137652865
0.22452044138460336
0.20957190768999837
0.21528917490019497
0.20378012068893367
0.20330565281954704
0.2356119363269185
0.24979426441500396
0.27349915873956726
0.27932175955995914
0.25651863525920765
0.27883232053956414
0.2622365664976155
0.26183269878743004
0.24194208321724675
0.2150295268626397
0.19315012804352727
0.1826627315468887
0.17084261037933976
0.17230306528691516
0.1765539206144209
0.22646782010607444
0.23378799877551087
0.26147689298102883
0.26307694464127324
0.24864764317548943
0.23329598858246278
0.19906045340437012
0.16619760966214517
0.14159355090935233
0.12819518575249608
0.1477778224161688
0.15656118973623842
0.15599323445600075
0.1717222218766556
0.206117887337006
0.22698140767138633
0.22887191084385186
0.2359884282735022
0.21938885727519553
0.2124467350098443
0.19612788635012868
0.18721179724941261
0.1704331706632494
0.17369097652746332
0.2005822592203288
0.2038998997227444
0.22353249588092197
0.20568995628115222
0.20259077177553927
0.18677621293708993
0.18021054999315952
0.1854846239488495
0.17386092776880488
0.15320037700736347
0.14959506759731933
0.150902072200875
0.16503468447757547
0.1444805781778955
0.1789798607511236
0.18848171173556308
0.2027985819524804
0.2189989940172393
0.219860028725572
0.22794598865822036
0.241348216376664
0.24821518264269232
0.2540220080372362
0.21089786145944772
0.18264222774293032
0.131087498376176
0.08952327232421643
0.08972200917720893
0.07699254365910611
0.10838383490482317
0.13833102822049406
0.176082333384134
0.21282618780862442
0.2190474801193262
0.2106803714284899
0.17632096752818757
0.1724750311178232
0.1737031913105327
0.16829496632038576
0.18971667041146376
0.2266506361286747
0.24717783599202647
0.2654423303967782
0.2727351204578585
0.2769403997096122
0.2462397009551534
0.2533050646920444
0.24411253983516026
0.2530295312140237
0.26126511936810254
0.26829292897574114
0.25385436645664594
0.2637241181511147
0.2699340755830902
0.2806193128397102
0.25172856907016883
0.24625924956146303
0.23020406758979878
0.23504336825835176
0.2275877201086844
0.21574793255249572
0.21824689115123388
0.2339221379732573
0.24759248700369457
0.23745939057037907
0.19879508839634483
0.2055765197152718
0.18264177211974028
0.1759988641684733
0.16231366116821877
0.13771108882173766
0.13573332811010758
0.143979199517819
0.154124110746365
0.1542455904890371
0.16838889880469907
0.20649593540956648
0.18885505363914384
0.19256777766232713
0.18765250234546446
0.17876474292119127
0.1832143381996502
0.1771595821974256
0.1663308895375532
0.17883398945847206
0.20644952544754977
0.21544528419206488
0.20839734444268354
0.20892649117030823
0.2296875780611145
0.24909055818097534
0.2674256075581008
0.2677918189214917
0.26343955625358334
0.2531055417170157
0.2493910217414562
0.22584266687628785
0.20043283678641596
0.1686050501509854
0.16615301980880537
0.1636043962294574
0.18097841054338054
0.18152126622418402
0.18264344612140315
0.1700859882120718
0.17618213455228526
0.17429204470013218
0.16951395079398893
0.146157283160945
0.1400354131362716
0.11526644602598099
0.1095408398309946
0.11042764090654351
0.13837726513955692
0.15838080489965514
0.19588705269587794
0.2271779926420683
0.2481479580640789
0.25861347116501476
0.24727126782708628
0.21535239425446914
0.208274842391118
0.19843042059637658
0.2030463041978354
0.1973452178251532
0.21127673310766526
0.22679996248067377
0.24618543586491035
0.25074381811252344
0.23270001084749517
0.21342404488760044
0.20465000975887282
0.16502217406374375
0.15680598906809812
0.17793885974244866
0.18058518145369268
0.19496657412148888
0.204542267425649
0.21777297227339057
0.22754887640935775
0.22024528605623309
0.23998270420324638
0.23044932499865137
0.22462866955759758
0.2284048521758213
0.21969287250751607
0.22475606223682543
0.1965416055747177
0.1859556812808806
0.18435127874809656
0.193859767439413
0.21944366219377237
0.22861454051001445
0.21470381886198625
0.2385772031565928
0.26866655830182606
0.2571507304177356
0.2486758346398721
0.2370660008419556
0.21558210997599442
0.2143558274196725
0.2107188974529869
0.21892522863383634
0.22411712112090673
0.24181018683370717
0.2179046054603105
0.2433118941939269
0.2936059256801197
0.2967278110533036
0.30610305196220444
0.30939593530427467
0.32235882015330447
0.3246402096975215
0.3064109739107036
0.2755953333683933
0.23917935885640748
0.2568801646943711
0.24932053840468638
0.23487735305366994
0.23491149896537594
0.22205971047046574
0.20980315117716095
0.22511262150399555
0.21678242905272804
0.219355075253017
0.21950178838886072
0.20099438713635479
0.19088801517893084
0.18642708299509386
0.17627783055360519
0.1708336606783677
0.14293488954870187
0.13947139522293692
0.11229064113763847
0.10654414242339733
0.10662022017517533
0.09716393691007823
0.10699162510498582
0.11950534199129612
0.11669257150641997
0.13120958361199903
0.13501762695859756
0.1241932513623681
0.13531734259887096
0.1566399750722049
0.1683793424074782
0.16066254801835472
0.14350218658044844
0.13241974230266823
0.09941497541348852
0.10245846831761923
0.11573458685933424
0.12647511876361428
0.14353739649950095
0.16916245763218205
0.1934663720693819
0.20791279281879502
0.218120406724879
0.2314643970234848
0.22970437353963877
0.24016841686073587
0.22971016553023982
0.22468492028620837
0.199892879116685
0.1951274934489167
0.19813283377799704
0.20594754478792943
0.21189247131015093
0.2167069639246004
0.2170031358573506
0.20122397325663566
0.20203379208175265
0.2151234146194185
0.19441793510059457
0.1860201675261035
0.19106108689314838
0.19344707399010727
0.19587830611258888
0.2001852566006327
0.1845442778684074
0.19311436072208588
0.20570920022659117
0.2269393409501174
0.20633024339712808
0.20787479376560128
0.229463783761939
0.23013848467368603
0.25163562062864886
0.2799755875350511
0.281190794476098
0.2733625605552558
0.2608772386492206
0.2636058702214515
0.2318549476245254
0.20848350205536362
0.19192409157930623
0.19346804015117577
0.20460683638209082
0.19529259112208586
0.18435466082050297
0.16152800147546514
0.18752724222381945
0.20268189102878317
0.21524839794812642
0.21726464935038503
0.23190931796081093
0.26718267343010643
0.28166163523191684
0.2577302365920557
0.24866631233672928
0.22650104153368059
0.22123232123765452
0.21070607986390005
0.18429665931018052
0.16059210978547683
0.17306893701851284
0.19196711266439015
0.206474072496101
0.2023494352027845
0.20611225387389528
0.21005380066652157
0.216441979766358
0.22662366324596944
0.21355033395617212
0.2129837736689226
0.23206869908664207
0.22885068990373247
0.21751738632855086
0.20149494721212077
0.1853008194159123
0.18377021157842272
0.17988125361883284
0.18911751051872797
0.20368377836866391
0.22040664051875183
0.21556234336177688
0.21147322758690892
0.19838254913643527
0.18837985624100298
0.17453928982173209
0.1954356696010387
0.197500296226901
0.20283393389570756
0.2016630919588251
0.18533982186178125
0.1557556395693733
0.154299696727155
0.1560207974029352
0.15341462913103818
0.1713461585672325
0.20877550352971933
0.20925401163637805
0.222120053742876
0.2170006365926946
0.1997456332726846
0.17888224928025362
0.1862507591823704
0.182302819559208
0.16830088589461104
0.1799911490021025
0.18324911011174272
0.1946866682906231
0.21026326469600443
0.21686556061101217
0.229059053274518
0.22139994577028016
0.22740047076653488
0.22356049869987668
0.23380731558507262
0.23970537005382808
0.2623503778273462
0.26127205344912297
0.23136996627310277
0.24143894934042912
0.22518731361066488
0.1921799859185949
0.1629986425644747
0.15517233273185885
0.1710351898040532
0.1836226977064186
0.20773632587337945
0.19407101582051467
0.19245761004292644
0.20951169667074512
0.19621817808731137
0.17680958545068104
0.1586348374933848
0.17789876179547562
0.19989528767854797
0.22366879383846305
0.22032889721021207
0.22023121728802292
0.23079328570619728
0.2284449713397023
0.23550864966598883
0.2142074581783833
0.231135801571963
0.2332357673797743
0.22016362097082304
0.21981702885922258
0.1882271112951593
0.18719484844619863
0.1573683938942711
0.14279555380100445
0.1430813456180459
0.14529652609135746
0.14845034550723527
0.12211706997437409
0.13688341963157719
0.15627070695854683
0.16141784394186698
0.18240968811364044
0.18062016092410235
0.1882493887387481
0.18921728476735405
0.1859647198595177
0.17032496290806884
0.165903365918277
0.1836854739229269
0.18286360365517132
0.18757256978745615
0.18267156167824505
0.17148957053496647
0.1562813411148158
0.14612357174802912
0.13240820097337438
0.13422369843409676
0.16228559836458276
0.1930652810672699
0.22885453583161317
0.25321971892361944
0.27399500353181844
0.28460328520925543
0.3034854412398829
0.2959410854240363
0.28516859572565134
0.2840653392208836
0.2798617196844003
0.2505955091660996
0.22773477762021443
0.20021398080680622
0.1955779726272904
0.1775207260402884
0.18868007986912985
0.1940463822568324
0.21519587813394753
0.23008025784505656
0.23483081714680312
0.2538714450253686
0.2434942110782892
0.23941203565892208
0.2396476666479179
0.23693666752431675
0.22305917859851596
0.21121503312885573
0.215763514876452
0.2162561961103779
0.21862731243778105
0.23237525689331345
0.21008841255904828
0.21479774882300873
0.21994848889867305
0.2419793061729863
0.23381888108225782
0.23995941081707628
0.2473519320632047
0.23511921863527194
0.2221198468980684
0.22415934549315453
0.20026963241036697
0.19181999146714485
0.17707920917265665
0.19153294231996346
0.1851914900017502
0.17766336359816673
0.17764253743755623
0.17931009081410285
0.18991082717692587
0.22451762230762948
0.22855415069661314
0.23063415849904229
0.2288952741627465
0.22679572542031984
0.19660134323303097
0.17144407861195
0.17335363541488805
0.1474797259755712
0.1283362584506393
0.1420299464898912
0.14478015966525531
0.14983603974555362
0.19879133211254116
0.20751681765071575
0.22267183686590894
0.2481096422231738
0.25244930724836756
0.2174070637394519
0.20391535239287462
0.18229754415229532
0.15585976097434007
0.12492381325881531
0.13783653500978824
0.13978473312902354
0.17098175536160384
0.18374427032540094
0.18387115855677574
0.17716145714002685
0.1869801701577595
0.1949097680481781
0.17767240238889606
0.16105516318942498
0.17435852007970892
0.1980230828967603
0.21586644075512354
0.2331092001900624
0.24704160755562762
0.26839227795968573
0.2720755868038317
0.26095719203734347
0.24168826283456887
0.22230083341222456
0.20402191156316588
0.19539452416200337
0.184309032638616
0.185891373758112
0.17827710545796122
0.17476765256238802
0.15332837745152963
0.14039288583254597
0.15675030856640865
0.15903251840528124
0.16489169263388376
0.1915028950398278
0.20085418818894013
0.21436755229819923
0.23184024512364348
0.2270446875589561
0.2280023484864377
0.2189904366961143
0.21469349303735696
0.19650609263912594
0.18073257760686467
0.18137500389004538
0.1535986719402411
0.16695148886213165
0.19201637767850244
0.19241847797873513
0.19444008305020535
0.20012955749973121
0.21015392647101538
0.23367319259358127
0.22612656511465032
0.22515409531796404
0.19927495424669409
0.1997038070569402
0.18992858674601615
0.17325874797728902
0.1685743120634756
0.18095872515681757
0.1987485309027145
0.22151916601678867
0.21693769153251394
0.21643655129760878
0.2116435445274209
0.21603271362402257
0.22580208859410422
0.21410932870648797
0.2060077209305258
0.2190295098840508
0.21903269037536102
0.2165570301193511
0.2272071953139663
0.22217858102022392
0.21219791154767467
0.23069080737319597
0.21948472790370044
0.20305141123578366
0.18413536309467005
0.1777600668635762
0.16403923954341487
0.16306182683598855
0.18439469523592766
0.18773863439257504
0.18354784193710377
0.2006269363861048
0.1882740790057793
0.19388309753904936
0.186671541734528
0.19293737751552234
0.21595554679682014
0.23681355996254014
0.2693086918966286
0.2669683599562974
0.2617004942099593
0.23665457635799433
0.19126630998592153
0.171000284760834
0.15066567852582954
0.16012286598160924
0.1738748210285584
0.1848434314025403
0.18997562802819373
0.20552382609084055
0.21811741369629617
0.21974073239661643
0.2056182333037098
0.23433046727676018
0.23467556674468198
0.23518420347045366
0.21262724994824667
0.1860355029226882
0.15794822955323665
0.17541625644695225
0.1719611076674979
0.16212898545034807
0.1641330164524586
0.19611848333077592
0.2088669862081365
0.21279864696691303
0.21667923716536747
0.21784809036063965
0.18523209436309535
0.1884799771416254
0.17975432004768957
0.15185793918440071
0.15655016857785264
0.17152448733935363
0.18535537387666656
0.20234154498390405
0.22233071530972387
0.22443267988216628
0.1914236566870872
0.20842178722819615
0.20223128287683256
0.19691628869132796
0.20456888288272945
0.222068834504282
0.20429140067178414
0.21278554826862112
0.20022627116951935
0.1838555787968033
0.16184889229867278
0.16601264331689963
0.17977091297337025
0.1957403226171456
0.20781675384469706
0.21185735628035843
0.1919859156622637
0.22269622609881295
0.2194859785002996
0.2213078865896771
0.20829457686206304
0.2367936165690491
0.25468786056402126
0.24611699987945082
0.25201066688699164
0.22285970306070843
0.19091223520660744
0.1885525914080641
0.16570819465835177
0.149596147981126
0.13562783420306243
0.1628738507486337
0.17067255230869188
0.195690899142755
0.23919164838434367
0.24065027791483448
0.2548111249388814
0.2512665779292315
0.21980068259675836
0.18133795023862176
0.1559840888845708
0.1566651748155845
0.15339938619997973
0.16938028096785093
0.19000980062786563
0.19536928083101543
0.2113647492697347
0.20694129227388247
0.1979258347845011
0.17720734627678178
0.18766063058056195
0.19857190027993038
0.19142122842950937
0.20760005231788448
0.20089253484252498
0.20182659484052703
0.2057985128862291
0.22723701713750266
0.22778806592734618
0.22010641382090793
0.22322480122562213
0.21906585418979038
0.20655498657669538
0.2079987063165386
0.20201062519235166
0.19162586389791225
0.2032778605253695
0.22654603466886253
0.21482078432605567
0.19740042211477227
0.17783128628790382
0.18510458085157314
0.17151905044880217
0.15697637650685317
0.15414754435559175
0.15027617207653685
0.17254723425192364
0.20354950001056393
0.20324110201948128
0.21236581134303784
0.21972030982660304
0.2309677404019479
0.22641146967265746
0.20533586348378896
0.19409001450241156
0.1908153323998855
0.18930446249510308
0.20130819395025665
0.21057444324106636
0.21991768797098185
0.21376788185803833
0.22111736351217826
0.21469656859552017
0.20519833588681055
0.20126884975570336
0.19721166627418307
0.20163878510277117
0.22254827712571457
0.24075381825772743
0.25209359321830327
0.2518426003423235
0.25546751083428726
0.2250378571566691
0.21674472251124807
0.2033498581917508
0.177568240979395
0.15261394005483345
0.15021128179862472
0.15434414658378895
0.1782618901309161
0.17888434196121294
0.16739796325888262
0.16588704530326337
0.17887038769842203
0.19725788466893815
0.19132407050991398
0.16978363652840944
0.17919459382290986
0.18478383599469905
0.20299217966093794
0.19829648243600245
0.20223062604950168
0.20783720521441776
0.2053618999437937
0.19108748811401333
0.1777369236486117
0.17426426845739001
0.17379751634779056
0.17995323696593915
0.19201649271365767
0.1904617731492159
0.2098083575293995
0.18978844794831184
0.1692189643224529
0.1543775355310292
0.16748775631983143
0.18668860054648198
0.20713943897761114
0.23517026140203026
0.24467391849326806
0.25390085019724384
0.26368874184766716
0.25394929820465056
0.2268323533932042
0.2094545755835628
0.19683638402121964
0.20338870747866816
0.21173349744521475
0.21179185735353417
0.2287357706455237
0.2294458892413794
0.22098223878440212
0.21468515008046915
0.18886078149154853
0.16617307755753238
0.1577574583745773
0.16577917442723533
0.17974968655501666
0.18846451601517233
0.18950228642420267
0.1781564698022814
0.17739958123704552
0.1797967343717474
0.17429777539429842
0.17739525713013157
0.19768589525435454
0.2083962434460409
0.23956036658923424
0.2335366690577086
0.21391225581514345
0.2200831284976518
0.22491676431143395
0.217021449164961
0.1998082503685108
0.20448638361514876
0.22515515156506544
0.22675114792302875
0.22382133939419493
0.22431245281110812
0.21176643309209156
0.2153278725656841
0.22414917401408438
0.2113345927554148
0.23036451862998017
0.22514607678316206
0.2389437765387492
0.20275416551231062
0.189583616668731
0.17846990397207307
0.16970041546771544
0.16112399988356607
0.15273863041505412
0.14454266305383578
0.1365349204543972
