0.24926808558037236
0.35508243695475206
0.4500799350753584
0.5342605640431821
0.6076243079590389
0.6701711509237543
0.7100544802066453
0.7398539258257159
0.7683878778473111
0.8146850528886579
0.8639666418762791
0.913509875164087
0.9603389066359302
0.988252462921074
0.9988344377519435
1.0
0.9807795778049828
0.9411949722047827
0.8978226760894551
0.8541184763924234
0.8175175693695095
0.7962405610112159
0.7907674080339987
0.7863803887881918
0.7716823194468714
0.7481000117955291
0.6974206708651536
0.629771702946566
0.5569822354223948
0.4728867859761931
0.40730472830225894
0.364612524078518
0.34980623599365757
0.33526996917103447
0.32759678600473763
0.3074743176627435
0.2815610769832039
0.24497005300169578
0.2213158783722666
0.19890899943379683
0.1970136916568082
0.20549367520423392
0.22996881155554322
0.25001821562130194
0.2739058784299901
0.272056480432052
0.261277505822315
0.24377217618149802
0.23687156862488917
0.22607146607559694
0.21680830613656407
0.2013890571376299
0.19040323594638214
0.17125326781023717
0.14322303339118259
0.09824843340266703
0.05664483111867743
0.02623088394879961
0.00454082247651084
0.0
0.0014248361924374564
0.008518536285632575
0.023934087937462812
0.0438537007093262
0.06227800047911945
0.07556829581956341
0.0935339269928283
0.10596943457193507
0.1130368080368913
0.11900401239093569
0.10907103052875287
0.09790381548425937
0.08559026780046558
0.07927828489426728
0.07501099156863514
0.09278656420607274
0.11582424560930875
0.14426017274557104
0.17934752786650152
0.20536154258489162
0.21753823578792103
0.22135008305654455
0.21524882578435214
0.2016350303542495
0.17929633285937596
0.17232796572221953
0.17160228772097533
0.18567206702203068
0.1982274544930789
0.2000010622680926
0.18923484167636562
0.17472572753750865
0.15797938643175588
0.13827611898574607
0.12234886802450706
0.12474103555558418
0.12716590825920823
0.12254196088949945
0.11707855303750835
0.10761686290393828
0.09110717022635033
0.08239403284789631
0.07444402695050638
0.06641542701244835
0.06797360391465389
0.06618164926718902
0.056236074801313686
0.048696947108366986
0.04841273637316151
0.05673256133339428
0.06609995255681343
0.08250683575748816
0.10084038353243704
0.11703066951255645
0.1335703350986135
0.13633625931468837
0.13934480701001334
0.13604333239569597
0.1336500350147381
0.13366707482342272
0.1328448831902859
0.13947941487382967
0.1471227396662274
0.15486406050626125
0.1609417067679293
0.17225967469774625
0.1903680578977322
0.22064360438814076
0.25755454532448574
0.2751353275675681
0.28039450655422843
0.2768848308212615
0.2656151909824761
0.2488467661384374
0.228766551079388
0.20630050632357644
0.19937431650201806
0.2051089852842377
0.2052925224124821
0.19787487454470365
0.20592159627266352
0.22272679943857682
0.2454243269415825
0.2543576677787511
0.2507229215747957
0.2286082180372985
0.2102542484376181
0.17870536149344193
0.14148882445546837
0.1209848339281299
0.13224308818725486
0.15313287429182212
0.17978425734018802
0.2000063037632837
0.20757278840351875
0.20254071340996674
0.18872390813839757
0.16151045036878467
0.13511202361005342
0.12146695971347574
0.12566743452894752
0.1358015156141479
0.1526809164956632
0.16993957656971803
0.18429633170419013
0.19116969393866456
0.18731769008220855
0.1780374474672124
0.17072483589716306
0.16403145588284193
0.1620238366666107
0.15125820466006645
0.13894267161928522
0.13153482961220084
0.14918893885121362
0.18624109862831048
0.21619221829018456
0.24845820269908386
0.2707514230936997
0.2776172998301173
0.2756834678814112
0.24988715982570978
0.21412104318009084
0.1796815553600064
0.16132089055311657
0.15606712115590338
0.14559353261330493
0.1496134001689713
0.15050684482659646
0.15737099327832038
0.16346385957729928
0.16841398047651843
0.1660029249768386
0.16103850902128208
0.1549207120635976
0.14693760767286923
0.1352514948777246
0.12617110417316635
0.11553739835976144
0.10719380052113378
0.10200355852926418
0.1028196516575856
0.11205875237189312
0.14245697549146777
0.20161038733345124
0.28627202806085733
0.3745064989874538
0.45991642179513265
0.5258853648258851
0.5680318347330107
0.5840513105793033
0.5653952640368224
0.523962000203888
0.4637259126333429
0.39615333106942646
0.3349926368743018
0.2735977386288616
0.22374040305177248
0.18685989104857104
0.16565644430773507
0.15587501834291095
0.15886312750128503
0.162188687172694
0.15998212308130838
0.15143972629699068
0.14591572840222267
0.14357941324210943
0.13978723650853975
0.13671125549998675
0.1312569131173276
0.12928332050009403
0.13289707830154654
0.13121062411158152
0.1315491756465946
0.13670003044814744
0.13881254993956538
0.14521195424763736
0.14550374238526462
0.14164178860660065
0.13323681669420107
0.1298611562760707
0.12825441531138002
0.12116806974403209
0.1206179566394359
0.12079548823553922
0.12426543053183678
0.12460834797539427
0.1239788709509146
0.12324443988049631
0.12063265575382726
0.12649698387399796
0.1323890664709009
0.13222987257948232
0.1385022228602938
0.1424348795970197
0.15483948327721267
0.1601335355093709
0.16677241866114534
0.17311461109097284
0.171785068487939
0.16938900276806712
0.16489566192455649
0.1504761024537877
0.1402884601153351
0.13304446292696498
0.1316839550273798
0.13001857499321084
0.12614917349495489
0.12385337215489257
0.11854418670694389
0.11304367479452714
0.11052298043993364
0.10882993590654377
0.10958672698079193
0.112500037477109
0.1177652749463127
0.11730052244428675
0.12015890156982947
0.1217492381046702
0.12674820647104648
0.12568639127362155
0.12549199421023857
0.12520858416812278
0.12333867843729929
0.11750776216268001
0.11328269617752268
0.11025251697875565
0.11076394255769062
0.10888200527190955
0.11532681040976568
0.12123124220513114
0.13070491766719813
0.13529963752434923
0.13938247458327305
0.13803957528520858
0.14392844180441025
0.15134980140528184
0.15240958760302795
0.15285366583009904
0.15742430424505166
0.1579961229221614
0.15165796691985686
0.13987513535501928
0.12964568514600655
0.12022701806227166
0.11877427139108497
0.11777725102135754
0.12031571925359445
0.1252849660100006
0.13682072311255725
0.14573730925453188
0.14866979909522396
0.15373332792324784
0.1566204525245913
0.15751363588897074
0.1581530481009489
0.15424863477625347
0.14847428417761216
0.14125235671956554
0.14123891052721782
0.13944882116941676
0.14109105625122004
0.14914488695610859
0.1529714452673688
0.15641829438958718
0.16068440265503858
0.16199009133596717
0.16250731609262542
0.1625404755123389
0.16605045909894542
0.16601984585261723
0.1711131981816283
0.1736847054037009
0.17297394679669287
0.17081667963384847
0.16942823895885445
0.16438721242825113
0.16221552939688375
0.15663291108518942
0.15269513174971347
0.14686643360290555
0.14425927426901938
0.13903399619338355
0.1372847961957003
0.13298001242817623
0.1283042382390328
0.1214582952407709
0.11349666605021148
0.10371976401573317
0.09696516154934125
0.08831392701982796
0.0792831622085207
0.06765931828882207
0.05972441639764681
0.0497394116379901
0.04085355350769824
0.031477536989088714
0.020423581810343015
0.014541369798134989
0.014441052310372909
0.014715788876695696
0.01674392597413224
0.018557211174943404
0.019714694860899513
0.0209274770922725
0.018726647029309307
0.013513731499925985
0.009163628945831667
0.006479533513186842
0.009642026002003317
0.013066553656572784
0.015916053544916667
0.020277053194775872
0.025561441690731684
0.03294839370148822
0.03751281329884197
0.042908125221606336
0.05063670065769434
0.058609934001520425
0.06479602700356599
0.06878643687801142
0.07096682650664764
0.07606449441585131
0.07960005467232303
0.08172809666392458
0.08361120662103211
0.09132956061138606
0.09988038100569153
0.11017768612381464
0.12087965705055485
0.1310197499430299
0.13470953300507346
0.14028085695261522
0.14358192036042722
0.1415866694797417
0.14277093024950874
0.14594998130376685
0.15017471545894115
0.15461818851085454
0.15767675729566238
0.1632184461706221
0.16354391623988881
0.16447157442757573
0.1658855920838064
0.16637854834805402
0.16918999914341437
0.169578833556265
0.17417489454422455
0.17203226648908468
0.17084975028264426
0.17308568237767516
0.17548668994351016
0.17438920470572453
0.17397062661475723
0.17651024400906112
0.18029917138107152
0.18015522708366416
0.18412161417476366
0.1821901595283034
0.17938015121238418
0.17539186420110905
0.17755273277253023
0.17353309201552974
0.16995779139758793
0.1721120830566568
0.17480469155241787
0.17588558625236525
0.1764772386659592
0.17431172900872344
0.17205608893060054
0.17299254968284988
0.17417238911461153
0.17272975248575415
0.1734434018951807
0.17483060176802295
0.1797370595250929
0.1806061285501976
0.1774603240142279
0.17527892642792225
0.1774005421519464
0.17857222893121358
0.1759365037645088
0.17358235510505635
0.1714884211489716
0.16743415540196294
0.16778175871733217
0.16194163964797928
0.15988881913287187
0.1571642053279061
0.15906521534681511
0.15812197199764774
0.15793885081937595
0.15563621001458725
0.1602246150269841
0.15882349536687426
0.15999830407247131
0.1613580040827857
0.16086496731294508
0.15748075472287318
0.15577821727370345
0.15296478493994134
0.15103450228166107
0.14544504080635573
0.14700445211145355
0.14631829269125962
0.14610923298846315
0.1466607976510016
0.1474187289185524
0.14725278932616448
0.14847107738311752
0.14934118170631488
0.14656858387987937
0.14340383142260008
0.1389173342343757
0.13555675471185372
0.12626192914877
0.12350757770584742
0.12464056404976093
0.12380939929651909
0.12649868435867953
0.12881174732966316
0.1313811198766291
0.13666759812221901
0.13833102833997393
0.1409571761969917
0.13992505557046164
0.144157627927598
0.14692637815404172
0.14619778588857876
0.14422752777255984
0.13851081266613108
0.13518234633681142
0.13409791553930853
0.1338391966858593
0.13167448643817337
0.13105936493111603
0.13037479501046081
0.13366105588654464
0.13042398686046716
0.12905416826116017
0.1272955186459597
0.13173218436161527
0.13382045422902109
0.1358334566875867
0.134555178946236
0.1369057553141291
0.13295828069789653
0.13131715342537845
0.12313322316051123
0.11861225503864954
0.11564654570878331
0.11617326727114384
0.11384353740863203
0.11573027124915675
0.11726488638477062
0.12348263430757482
0.12404656931194409
0.1270157974828937
0.12935770398272792
0.1321019945778716
0.1347555574109985
0.13832192435663182
0.14148330439167703
0.14550066411982052
0.14424338439774576
0.14422593138372428
0.1389118692882464
0.13378152108985353
0.12849444603517865
0.1236439684538607
0.11970997004795396
0.11738178540363203
0.11713932073123037
0.11845891968374889
0.11823381735513849
0.11801299868201355
0.11810626227120398
0.11596540388963933
0.11877695245051041
0.11945481459750804
0.12063017590027353
0.1205010347900862
0.12199531495612448
0.12571963141207126
0.12730634945425154
0.13009794815607723
0.13564356099426406
0.14020389974451575
0.14866609142595597
0.1572952033254184
0.1654935637521512
0.17891184893908382
0.19954418600401527
0.2281934557396328
0.25963228696233515
0.2977876614410961
0.3336272911946698
0.36407927428123726
0.39017329277680496
0.40896398279630813
0.42010219596087806
0.4287671957444568
0.4348541834605596
0.4408633027088189
0.4476889705197745
0.45556236903661557
0.4577812578000518
0.45722103172639794
0.4553913454709974
0.4458168547198045
0.437699866140418
0.42613585488782807
0.41410493717542035
0.40426870193461073
0.3923902225924578
0.3846261613958537
0.3750160537355098
0.3675697752373477
0.36435113072645275
0.36255874803899535
0.36161658256706364
0.36162927811096046
0.3600616290548512
0.35641176828815196
0.34806594915849365
0.34177861775255286
0.33027156616452186
0.3174543117252734
0.3086981063650757
0.2978330419173214
0.28645167579416625
0.27984671676903883
0.26729287621819037
0.2554529612115227
0.24392108503972262
0.23261860382865787
0.2182554015252425
0.20685280139987428
0.19506825427333863
0.18531010596234523
0.17742534395971798
0.17346005723990288
0.16402821929211808
0.1593790096373486
0.15371303975153666
0.14905444992171318
0.1445693422511739
0.1427094346585258
0.1386483043435262
0.13591104334068307
0.13252487088259782
0.1312425528305057
0.12783979999653614
0.12796230823020602
0.1267356524221226
0.12544215308150838
0.12511978822285783
0.12328529070887591
0.12351614733555888
0.12201136742687003
0.12287642871850031
0.11989740962947809
0.11695727811204024
0.11681762558547783
0.1145779521411421
0.11478014534855216
0.11398111316041369
0.11367277384590642
0.11662990152369607
0.1176641085381917
0.12051887857217222
0.11989677285048397
0.11883879935925566
0.11809083833769193
0.11707667872938399
0.11645060056794897
0.11405251585760937
0.11499175751520019
0.1162792312935589
0.11943760447107303
0.12355042841196993
0.12511378023581893
0.12553255828561805
0.12471066445361366
0.12617362058817266
0.12527869651955853
0.12572596657695476
0.1265030553367135
0.12726083047086068
0.12888500572254405
0.12768847150034487
0.1256739804574432
0.12374035448049023
0.12345402199113678
0.12760317007910746
0.1276093720962658
0.1287741430958709
0.12787730883825188
0.12835722944503808
0.1259159852122185
0.12401812822900425
0.1221531726684837
0.11940484758855151
0.12056420456365971
0.12385977502136644
0.1243348309424173
0.12614777068989005
0.12609596765592546
0.12842074194991857
0.1287675483130396
0.12796991464151392
0.12614577846825095
0.12428576077771579
0.12427934815125323
0.12585179665944346
0.12650740783211548
0.12670886794935549
0.12800971757333063
0.13023123968971828
0.1319642479620457
0.13091815550897282
0.13203251038141622
0.13308218152318263
0.133652845573016
0.134835548700167
0.13334922318843112
0.1311575921218811
0.13124541184618516
0.1298560079405064
0.13154059832399873
0.1316567477196969
0.13382191563490667
0.133502756178003
0.13545557539971514
0.1343441647137635
0.13162174486249317
0.13002000871716757
0.1292162802856106
0.1279410324301681
0.13020880489774395
0.1298281802691653
0.13135476806348906
0.1308966638793521
0.13167865078213248
0.13086913315490586
0.12933667017888326
0.1306507609221354
0.1310242378762211
0.13341137038343628
0.13584016631708012
0.1380621721239823
0.14082378471031057
0.1409094411317495
0.13900443997903147
0.13820266279729834
0.13567250601008118
0.13487000308867234
0.13244866481990544
0.13277647003346296
0.13178697118923458
0.1327049422941865
0.13454449066226848
0.13555613205781492
0.13652550975028402
0.13750957972190847
0.13931143465063706
0.1387503909752188
0.13534233324039338
0.13465952296247802
0.1329845684750634
0.13319751918571857
0.13555166624778925
0.13835423078510467
0.13999533669788028
0.14107297755081513
0.1429661872619892
0.14254661348950126
0.13980571696242047
0.1380118538418306
0.1379767873681199
0.13644559968315853
0.13711424508772965
0.13743903140644811
0.1359802003429732
0.1357486453048071
0.1367183400482467
0.1375193332255006
0.13716564883752133
0.13652574699752668
0.13802581393789284
0.1371018866998458
0.1383749287913152
0.13677918053448135
0.13649489579572488
0.1356808510046566
0.13621778953398228
0.13493801380444764
0.13313756931573045
0.13189869460983142
0.13072408280177186
0.13076142611305389
0.13380856471161498
0.1331285561662243
0.13591675421075128
0.13567184030986174
0.13731584223307483
0.13793850563619459
0.13884896846816613
0.13843725854230873
0.1379339640209992
0.13919799640455374
0.1414964111182863
0.13914817705499632
0.13831012568505271
0.13704936305694995
0.1370284221253509
0.1382342920050904
0.1392184042997887
0.13782095421594195
0.1360404399422204
0.1362593339213954
0.136112741018525
0.1361068727298805
0.1355392800956649
0.1350034380820013
0.13498809878487042
0.13487371285745642
0.13577299473250645
0.1340163853256298
0.13232668631077824
0.13355323753942394
0.1338083103191366
0.13609396508905114
0.13567597655122549
0.1352684196014826
0.135434217432031
0.13515238230056828
0.1364737497371495
0.13420593097556124
0.13317050886598936
0.13427510750133032
0.1337759807746128
0.13499370648866
0.13469069134341702
0.13640131827703447
0.1376297680918954
0.13960218862643944
0.13929914811571958
0.13645014326168106
0.13629126037963357
0.1368240869736055
0.13385106097099406
0.13353329917339243
0.13244991972626616
0.1336945786088091
0.13577064974170722
0.136431004673027
0.13563638718061094
0.13464782803359251
0.13588701738475617
0.1359243421777653
0.1341969329700542
0.13441803803074967
0.134816127411277
0.1353999327712018
0.13537532163262178
0.1340790617064286
0.1338281128987089
0.13304729342157218
0.13328560700604808
0.1330987745236393
0.13269187795851933
0.13227872692553508
0.13172406130734426
0.1327034284362783
0.13309186743133358
0.13513216946333173
0.1361583157240439
0.13618776949798594
0.13676081409005336
0.13528560270653378
0.13209811872316427
0.12983384936335504
0.12867605997573114
0.13026539141468374
0.1319358264200909
0.13501821428277777
0.13642765824375075
0.13573656342559243
0.137399963013138
0.13482042810097264
0.13291986913845572
0.13182919633597492
0.13273962407971354
0.13327748135817655
0.13354313903757906
0.13465800131715072
0.13550941845316505
0.1342735078574185
0.13400901591649028
0.13258662106728222
0.13138080179068895
0.13184894229431637
0.13395178746953945
0.13384084709514765
0.13394218205933797
0.13648113754639354
0.13853426160733603
0.1388710941020139
0.1377185417408471
0.13772518636954797
0.13719367223179832
0.13689631710474182
0.13406672835624386
0.13150619277506637
0.1311607731090413
0.13191779997028455
0.1301818393181867
0.12900726156448597
0.12870823358655487
0.12917131522870137
0.13099430371576515
0.13073450429633543
0.130905248992622
0.13151528866190312
0.133005352556567
0.13280979843319893
0.13079775517476164
0.13140681943120378
0.13187936515346935
0.13147365381934767
0.13313937472995843
0.1348083241338348
0.1359613016272224
0.13436429470694253
0.1345509027586895
0.13471908623803547
0.13454162995747643
0.13533195164090492
0.1352312857814854
0.13513416296512215
0.136938691617171
0.13789160800929173
0.13699809057874437
0.136941649445036
0.13803210895237372
0.13903465133454224
0.13814285102605034
0.13702353380155938
0.1349523849745739
0.1333649635821217
0.13199510658077665
0.12994832373020318
0.13006518637223927
0.13204899429244116
0.1335828027817716
0.13309580828047157
0.13366421519965707
0.1336124999144031
0.13410570429985794
0.13392209765965427
0.1342136319047451
0.13227066112020514
0.1325307677229507
0.13258538095642722
0.1323952508518277
0.12998378479518766
0.13184809008871926
0.13255141341453847
0.1338391392411774
0.13431937788673967
0.13617821746842626
0.13576789677071646
0.13596391655617962
0.13578890470058946
0.13647772450483098
0.13749370215902396
0.13947827595054935
0.13767973380833046
0.13577205927773778
0.13623802744160313
0.13577455986702103
0.13404131590918159
0.13319817410596332
0.13257753786806356
0.13258433198964442
0.13312343844199326
0.13419486241014994
0.13579860991044032
0.13793468672408546
