0.37690585407534677
0.4673807185202539
0.5482143447643658
0.6194067328076824
0.680957882650204
0.7328677942919412
0.7532446733864248
0.779596158990158
0.8168168995844872
0.8589932540326984
0.8948988844478668
0.935429173837397
0.9676333352052782
0.9943157756885098
1.0
0.992446029130632
0.965957955417064
0.9398182552608864
0.9012677471226525
0.8642413732980022
0.8213536143702458
0.7925227284832038
0.7733679181526868
0.7635756471770342
0.7476432922523496
0.7199010737320914
0.6906869769318323
0.6432181057242621
0.5695776710176709
0.49909001700543715
0.43765136614640116
0.39097504478177303
0.36028036036242145
0.3396101250569615
0.3184434574321877
0.3031643029272755
0.2943561872507612
0.26652687534016506
0.23415128850403308
0.21159112663775143
0.20787797410113876
0.21811718160218865
0.24387642839788062
0.26291206069056133
0.26068818959227674
0.2661807835236685
0.26182310362644545
0.255166144522983
0.24039206556032955
0.23264640488316285
0.2238120562776122
0.22714463115378242
0.22229911105711897
0.1988155770311677
0.15219129766257833
0.11508628882244108
0.06792191909848778
0.030642518076994883
0.005198948678791434
0.004594289795159086
0.013465393713296619
0.0290603264090924
0.04484738280066967
0.0691704751512577
0.08573484653353777
0.10402540959167991
0.09928196603149674
0.10041996497374941
0.10833690843266224
0.1142106712900838
0.11437504442289184
0.09591448248984447
0.0848528761035632
0.08504884788056671
0.08713154523048404
0.09452414489720874
0.08909421811802427
0.10721238016151789
0.13028461467465308
0.14787754432539127
0.15976510547278647
0.16358741169946983
0.1612608362465232
0.16670319955190258
0.16230449086460605
0.15909969648808125
0.16102566831804146
0.17612133046566128
0.17494058778000868
0.16891897146727075
0.14582001804904285
0.13515981833712784
0.11416355677067166
0.10568461027859186
0.10708410250219699
0.1308773967608189
0.14523189108200182
0.1513059274633681
0.1420710337611034
0.1267329126444615
0.10177288676427586
0.08322471561323742
0.06652456588382116
0.05233421989267067
0.046453998899835536
0.04509528516576655
0.029585249760429276
0.02256821806835041
0.012617647480781391
0.018772335919697593
0.026104742349151958
0.03533808453186191
0.05440698226877061
0.06645062757986271
0.07591129661384005
0.08051639424656647
0.08456018649056742
0.08223412116645001
0.07415714915641516
0.07792273618064836
0.08372478900554939
0.0915813662832447
0.10207664545978193
0.11003793485755607
0.11203440406639874
0.1130658484658667
0.13669164849370768
0.16949131427954128
0.2129198720592858
0.258390464247054
0.28455705109255314
0.28875512484657717
0.2926889080979002
0.26773135373019064
0.2258670620792102
0.18297370797822637
0.1604419775914051
0.14956307515072778
0.14710635399842192
0.15963913981268674
0.18446198661929694
0.23578024943008682
0.29290095624974344
0.31144173308636836
0.30879554701167333
0.281095868757437
0.23730502530617295
0.18290160806445782
0.11937533112401087
0.08492576558046576
0.08646851408239262
0.1087277942347146
0.1283368567916635
0.13752736550625339
0.14097659923928565
0.13727397386890774
0.12786553267690512
0.10770882645165618
0.08785623443814661
0.08059684996595122
0.08964107514657488
0.1042853710463889
0.12134236408194976
0.12992561635584418
0.14250711228384635
0.15726677978375977
0.1578747522827585
0.15441656002757267
0.14989701311737283
0.14507388153262063
0.13835337997126793
0.12691367078390878
0.11150370998972717
0.10077179482402315
0.12667239780661133
0.1859916756092658
0.24892614411869238
0.3078985469287082
0.344410116577826
0.36339020733889354
0.34400594891569436
0.29252793377702196
0.23087743645745237
0.17713491302056433
0.14761282358497607
0.13576160368388068
0.1319224200411424
0.13156620558697604
0.1363213633486958
0.13793116434155822
0.1397832310950569
0.13586777425867394
0.14432596575941525
0.140736403684632
0.13298929790735894
0.1148221468134297
0.1039840631122388
0.08667020571252579
0.08379985945683563
0.07861571777391259
0.09435377016898634
0.10933596213454655
0.12283020044844874
0.14450332895572962
0.21038533449305505
0.2935811944696372
0.4037228530223648
0.5040563151208296
0.5956870820840869
0.6506488818669158
0.6776330500005567
0.6605180153910827
0.5970823118844646
0.5239045782810897
0.4486484481178949
0.3722539452741742
0.3100663402273367
0.23896175337989592
0.18108744891715198
0.1473208063712527
0.12788064583883502
0.11971807153982122
0.1140534127836046
0.11563257895474505
0.11303692825577737
0.11832817706556256
0.1138691788343657
0.10638278596015104
0.1020866912368378
0.10368000377824765
0.093690997196237
0.08351939557171685
0.07731004546072995
0.08003519258655956
0.08472659717310263
0.09454499607908279
0.0963037077438244
0.10685456154936541
0.10188905027758165
0.10084566496883998
0.08907453773900548
0.08282652994224494
0.07508986505321308
0.07237838257367014
0.06762808300768984
0.07465998473964393
0.0809058370492485
0.09015354856747754
0.0897303919212491
0.09873531350907709
0.09834680376761387
0.10497262591382873
0.10513008911536334
0.10686597901695175
0.10290734455296456
0.11405142282270328
0.11787099445363698
0.11652528577005404
0.11253058435355205
0.11396842495176833
0.11065684188583236
0.11485781787376409
0.11442975304668226
0.11165369394133629
0.10538789842263495
0.10885230841327669
0.10656958426915761
0.10040266701321927
0.09538468610813772
0.09846482071852113
0.0926328587197339
0.09567239408922468
0.0875859113683524
0.08631377533222678
0.07844273849343922
0.08433437892785395
0.08476634629964445
0.08378765506004072
0.08620504286897744
0.0899710093448196
0.08526933305903278
0.09174749171923241
0.09174216525489663
0.09127943924439381
0.08743220259276567
0.08944900424931161
0.07873464464513985
0.0682304465353435
0.07183577671263634
0.07315894841958936
0.07868773193803658
0.09429155681909968
0.10480681588815234
0.11187021798494699
0.11193640607620349
0.10715591474009632
0.10089856989072113
0.0999917934949823
0.10222270835096212
0.09755744643657395
0.09767451503099607
0.09942041516640686
0.09743818296708043
0.09942614973009789
0.0931818053640279
0.08907724240026692
0.09029935106448665
0.09318948759215145
0.09285228728190817
0.09440812751519448
0.09533929807173543
0.09398160503990684
0.08964630063429067
0.09442123880488126
0.09771516075962618
0.10011089063976446
0.10453406256219619
0.10665542673642918
0.10739745581056902
0.10575784751192274
0.09945401500485257
0.09407660371184212
0.0842599067516953
0.0870212197290005
0.08722297012897076
0.09049065792436463
0.09366206836814968
0.09418464543962397
0.09807582446651802
0.10300078605385633
0.10733887404324512
0.1116815969351594
0.11007973800755377
0.11386339311295296
0.10874847795994684
0.10576022926267581
0.10200634706609357
0.09632767972191465
0.09677954972532393
0.09445148650830204
0.0909887370240262
0.09246089345437793
0.09287511806020389
0.09530499796794566
0.09516861400169495
0.09143745747059828
0.08414555936932594
0.07870061687102689
0.07078200690087154
0.06350689862316831
0.0545578584189263
0.05069261583011718
0.04511720995950409
0.04337014865103418
0.03996396704326863
0.02982930067700315
0.026047102973088605
0.018470586088821402
0.015721657043805605
0.014290190756137673
0.01630979355727008
0.01576221175082159
0.017916574095351235
0.016624145748996153
0.014079816158064811
0.013680442422979961
0.015086656666638608
0.004059067896913812
0.0035646614696648875
0.0
0.007370342467030681
0.008910948898771972
0.012173641764183665
0.015286825399234425
0.025915713605168193
0.035421717915795396
0.04245603614259612
0.04237779606239061
0.04901868638026022
0.05381002918690687
0.06280617312835976
0.062317437176858774
0.06062783512905031
0.0586010571900789
0.06095906558442698
0.060918822702526784
0.06460456577601369
0.06784612799574985
0.07591429685064091
0.08166037015813854
0.09363860341178204
0.10058951985634858
0.10466602655617972
0.10622690170634518
0.10661506973282446
0.10884563753929051
0.11148322885681088
0.11280504608597046
0.11385784572573134
0.11495678286410597
0.12226096108032093
0.1243366003428218
0.12348452263982589
0.12755337167276462
0.1257450699865329
0.13096833105811576
0.13856510343664716
0.142170273302138
0.1398952917542327
0.14078179450660241
0.1373236377374807
0.13682051813981105
0.13595541329732044
0.13546981795474294
0.1326911315282075
0.13642562787866455
0.14149234960278517
0.14203097621710128
0.13431493954792828
0.12837839119065875
0.11960634089251625
0.12437327499793441
0.11947842054259261
0.11857889971635123
0.1217016962000052
0.12171469479431136
0.12772867240648692
0.1331253148095923
0.13099016047802092
0.12960651116031496
0.12556970380317578
0.12777263085829088
0.1268446728701511
0.1277942991581635
0.12859280405365967
0.12539990956763442
0.12493102611528714
0.1276569400665434
0.12594872492060846
0.12122642760677256
0.1202140540127858
0.1230251971745942
0.12301497939190907
0.12062789873865155
0.12287526873534105
0.12583815845600013
0.12512730667790406
0.12917357072239669
0.12695982625370916
0.12121225499353935
0.1207796747208307
0.11670898984380113
0.10724099451589895
0.10683325140566868
0.1075428918541244
0.11198275480138974
0.11368182679741513
0.11334557351508057
0.11417031379421624
0.1129596942450611
0.11041912709328087
0.10694918061501588
0.09613099603716435
0.0954702573375593
0.09681493536962624
0.0992765896935102
0.09909269671793706
0.09563609112033863
0.0964750919503518
0.097716528089469
0.10030091056306002
0.09969057400736231
0.09340325228426632
0.0981085114149673
0.10062901498584859
0.09845636418984935
0.0936806860896711
0.08962883094281159
0.08846930874650304
0.08637861017241583
0.09230983312943841
0.09259793142226268
0.09125782007837348
0.09356727116859581
0.09215810086549181
0.09011333399447821
0.08866090952445178
0.08929005197003563
0.0872018499634168
0.08738669529942027
0.08923488312432605
0.08715497481549134
0.08468292520897783
0.08712269327797191
0.0888567377762555
0.08814318164921568
0.08872703800397119
0.09218470189865467
0.09184483118257081
0.09821090339444291
0.09212239131032941
0.09393303576313021
0.09244264599727724
0.09348649978013168
0.08825076984347101
0.08543611152855671
0.0794685809008248
0.0815484308657679
0.07755788206600389
0.08508116280654887
0.08318111321609674
0.08851880001134763
0.09058216473923493
0.09587720419569576
0.0976978529221577
0.09897928329085276
0.09866778826128166
0.10350451568666054
0.10382221572328433
0.11175310595438934
0.11141145237059283
0.11465945886823842
0.11578386775900792
0.11815524317838351
0.11319491651320075
0.10437792234089696
0.10297413627627726
0.09478731810308817
0.0932907899964974
0.08798106475950267
0.08583430064398608
0.08570085018346338
0.08196318469148664
0.08293872756424206
0.08357608045798232
0.08512941896689724
0.0942353020585736
0.09579178907774623
0.10338550308555797
0.09903171321962485
0.10216971021064991
0.09862944233511538
0.0968851324890484
0.09617910119186036
0.09977738217807502
0.10606877870830836
0.11464397857186236
0.1197809623645883
0.12709725130454422
0.13342262028138588
0.14782343607205203
0.16441209718033836
0.19174105141971132
0.22065663968308388
0.2589448637225727
0.30799907018473316
0.3523164881694296
0.39413527018645944
0.4340387943480097
0.46003415334445374
0.48036023421164437
0.49308341610961876
0.49814258606939094
0.5003190235697084
0.5021731266609506
0.5145391653815323
0.5194583352515071
0.5292193659113975
0.5427769890925876
0.5367464821587674
0.5339984215562098
0.52420338371183
0.5029368768503203
0.4852136536987865
0.4570115309758009
0.4390498784107462
0.41972770894606176
0.40559429786425355
0.39539535276227145
0.383147410195483
0.3758177937152637
0.3756359464924723
0.3742320462143479
0.3707350113909692
0.3595358801518972
0.3541513989274555
0.3395229731029741
0.3280525537251202
0.3130686395733938
0.2972883967989457
0.2788827166288454
0.2738243790723371
0.2634229951758404
0.24994284545910336
0.23715492606853833
0.224693297128218
0.20471069653426818
0.1955836814809599
0.1766883882064374
0.16144575634767627
0.14842729253741724
0.14656859283411727
0.1381633511042021
0.13384541501615793
0.12589801990944557
0.12033899508862497
0.11179432611687289
0.10758819089192806
0.1011620650695849
0.098908199376291
0.09646280533882894
0.10204708586233835
0.10367657657058202
0.1024395243386132
0.10107894234290687
0.10028243289416881
0.0965396914035397
0.08917094369129001
0.08496902735454029
0.07899530676421125
0.07941871190678051
0.07799979470963118
0.07824802139356633
0.07791600263354152
0.07764786687253745
0.07768713053641002
0.07608257448160381
0.06965498057762834
0.07375862335550958
0.07572115049385375
0.08261430277003448
0.08054646191537691
0.08463683052658964
0.08392015603289972
0.08186257132935118
0.08254858394295167
0.0801079406238479
0.07862517546401958
0.08586017896678735
0.08714631074276079
0.0912015150701142
0.09296557037424018
0.096784345421319
0.09363487624376177
0.0919912595214173
0.08907512789413595
0.08694180061362548
0.08798626756470035
0.08527582517947196
0.08514210059028558
0.08754149504117877
0.09079306440210781
0.09177883156584811
0.0899762071267147
0.08886019196511834
0.0850341240565585
0.08439421264930846
0.083900895698186
0.0819952098704293
0.08000970394647065
0.08083591186896913
0.08259266532346955
0.08426974454158549
0.08672945052119603
0.08881352884529098
0.08783959954196986
0.08932948659187774
0.0914978862585221
0.09237660484833803
0.08928328687052295
0.08792267334704647
0.08933130583754655
0.09417994123252033
0.09556221770795277
0.09679653866968316
0.09945073034122313
0.09937058198129145
0.0991951632972444
0.09768788432944987
0.09571981147344431
0.08822223980055244
0.08778900352849607
0.09012653594724139
0.08980035464599834
0.0891360035693557
0.09375116246949182
0.09318607777882566
0.0927449011495163
0.09119978234384786
0.09271395467592372
0.09046817935605637
0.09304133161329982
0.09583506189174228
0.09900632214940591
0.09891479224070815
0.10212749377189867
0.10037944075439545
0.09766838985063188
0.09682504146507541
0.09819793225445858
0.09712772767502831
0.09570482818014064
0.09201333669919844
0.08965036750890737
0.089251863129175
0.08877129552804564
0.08622310828420027
0.08462962158199369
0.09027916697117717
0.09417519702907058
0.09888717165045098
0.0987542267618938
0.09874088842889095
0.09399625450786078
0.09581653402394519
0.09294074966472192
0.08544748310124148
0.08529485686744587
0.09365013259739745
0.0965350417104983
0.10121339513657818
0.09995152113523176
0.10428080002383326
0.10188643769949964
0.100519948274768
0.09830902000814576
0.0943654914779514
0.09246940414389562
0.09536438926797809
0.09427162572750002
0.094068535990016
0.09249959516456371
0.0987707698298019
0.09917375882288824
0.10082428712802259
0.10567343809526983
0.10781646607449312
0.1019931064404114
0.10084948327046273
0.0993691748459123
0.09572337219218535
0.09478945347486677
0.09449474417272327
0.09408168065680471
0.09647675067430841
0.09887569837170773
0.10157479158968533
0.09792024234885324
0.10008784742359957
0.09968194262284008
0.09955932510731008
0.10316031359667877
0.0997812563523981
0.10069215618057904
0.09795020994909587
0.10082226311065644
0.10237578826798505
0.10302022546678671
0.1027905063643516
0.09982291928045278
0.09649519337280595
0.10014937670253204
0.09260915326694998
0.09270418358437252
0.09341481310130573
0.09604751807770769
0.09615190382077807
0.10037327290112635
0.10010687477120465
0.10133609676461415
0.09645775290595208
0.09934588124570538
0.09391439295106992
0.09488212718501872
0.0985563821875065
0.09812651348065637
0.09941912434772684
0.10614444610441329
0.10570882369136973
0.10487945198413734
0.10266349477641278
0.1024489040679491
0.10251124280574087
0.10065576274793976
0.100104917522259
0.09851588806283203
0.09714280771503477
0.0994693975985201
0.0967514653395678
0.09795090067986148
0.09839076734940992
0.097313329166879
0.09882936754666097
0.09702521299076183
0.09604647916670182
0.09560572471216386
0.09494520342389572
0.09378618264030418
0.09434951053206633
0.09295981452390874
0.0911237798581988
0.08727369767017558
0.08927407753025851
0.0918296260931226
0.09525387050334048
0.0974826920406341
0.1032104192486884
0.09955593273402356
0.0968136563714555
0.09353782112693951
0.09308150241782337
0.0869704953485161
0.08745882410367592
0.08834543218292634
0.09111961739497004
0.09320342340964398
0.09720095493595225
0.09524769357720878
0.0952430227219092
0.09864141520354842
0.0997905235462273
0.0943618166745093
0.09313746230747795
0.09509847504678674
0.09325997468345294
0.09071378656135946
0.0895240362676022
0.09167647011698579
0.08986397574713889
0.09187272898683481
0.0933393834775426
0.09461234884577392
0.09696322680346192
0.09666445940354583
0.09706047046359903
0.0980119470739991
0.09911829460999032
0.0997611824808186
0.09461052414121805
0.09658229388604013
0.09727200518919599
0.09506845482216153
0.09169611461104495
0.09009876426805448
0.09343792077634443
0.09442389978957011
0.0989268301519156
0.10319302226196753
0.10138725111204609
0.10713965659369024
0.10104585018100641
0.09781591246712072
0.09273809272037656
0.09058510801119055
0.09032054909847335
0.08746782276849481
0.09275684675839686
0.09753055835719611
0.0987755492229221
0.10192646776597353
0.09962394025082218
0.09871351837391218
0.09526729747717136
0.09680144107363506
0.09423211290386922
0.09407390145109934
0.09873929782871
0.10163533811764108
0.10252687260644809
0.10025555557356236
0.09878412562777433
0.09495107741120536
0.09170014889999858
0.09072964315476315
0.0869097453047978
0.08652858858517903
0.08666854355540357
0.0874080023280065
0.0868570552358399
0.08524217005337138
0.08484522717481603
0.08809617600187104
0.0881146932574618
0.09237345362175785
0.09441019685352645
0.0939462964769513
0.09388203581838853
0.09436554865409935
0.09644203228797125
0.09809970719325779
0.09768387580750586
0.10008055152848504
0.10171897748158891
0.10484623065595641
0.10325261376938256
0.10197217685891531
0.1012052791741012
0.09853076252933549
0.10207447253110882
0.1015942559646836
0.09796106957929632
0.10153904352064302
0.1037494933091969
0.10485370749634854
0.10396333372623223
0.10298570818816945
0.10033571378042279
0.09501175169416373
0.09265744393039096
0.08647947698295132
0.07933448772385138
0.084782899584506
0.08581537248993645
0.08810169565613797
0.0950124024928125
0.09809075152346174
0.09732806052937597
0.1002492228995273
0.09752655937099616
0.09699849300954885
0.09384006605940359
0.09855475580450944
0.09519577884308877
0.09492852084570613
0.09877198793234467
0.09681496643445152
0.09540657522748676
0.09785637259570161
0.0952111677017103
0.09676383243838764
0.0961391382480559
0.09710823517992906
0.09516840066452092
0.09638133866564637
0.09668850164060817
0.09513186583583659
0.09657995406792624
0.09905574912282057
0.0973597773113648
0.09562026341479093
0.09542230340074678
0.09330828587942129
0.09297967614825066
0.0949503236438879
0.09565810969854938
0.09554721210733569
0.09554953149379238
0.09566506917394552
0.095893826420011
0.09623580434537596
