0.38160908186328424
0.46334032146858806
0.5368540910804049
0.6021503906971503
0.6592292203172387
0.708090579939094
0.7345148239697301
0.7623702975140633
0.7908964438190519
0.8287013824791772
0.8703471327199174
0.9058254591057034
0.9432535764187109
0.9757311606759261
0.9928662409899068
1.0
0.9962819969734419
0.9757349472573998
0.9537462967627786
0.9231322412628403
0.8975862593584188
0.8851080252428313
0.8763254054908186
0.8743981676954984
0.8603849916677927
0.8329307035580612
0.7776158387722697
0.6933859890852188
0.5994728690788257
0.49853151322932976
0.4112940071647112
0.34579805291585547
0.29523321047924195
0.2602182964670642
0.23806716231551772
0.21991586112534225
0.2020099931381846
0.18483696481888306
0.1719471097978124
0.16757176021342174
0.17492928579078304
0.18443301034718496
0.2053891377714166
0.22025617325414804
0.23701617530065708
0.2398837781337556
0.23696200013542493
0.22604830539574494
0.21055443764823634
0.18958460345145156
0.17094097761583124
0.15334394983056626
0.1443951000163901
0.12738236810451875
0.10630502227660846
0.08488922357402086
0.06787753636126931
0.05106219923450662
0.0359466019615934
0.022762008491245565
0.008777061835746168
0.0
0.0035869307566520747
0.008651610753425212
0.017897688634607795
0.04088085857363199
0.06230746279557605
0.08036652886682506
0.09541128097395686
0.10590051446770234
0.09950352389429193
0.08912282590942167
0.08780616410964327
0.09002645210518448
0.10192773401241775
0.12648049727430943
0.1505660242813005
0.18096453047654928
0.20665226831293473
0.22476760292983936
0.22449412870594784
0.21628335119823117
0.2109704899171246
0.20349509879535285
0.19620521126461665
0.19549014180525204
0.19545271143564638
0.19929817757956225
0.19859869135299418
0.19522153311490723
0.18203862724969114
0.1641806450007149
0.15423166930013857
0.13958749320023717
0.1371050883500989
0.1472030191203648
0.1530110043173549
0.15529329051679813
0.15525314980898378
0.15555617221817028
0.14869029036623932
0.13568930358455347
0.12500242046775212
0.10724033033828205
0.0988449997062971
0.09057234134036338
0.07570196399507677
0.05846207524946337
0.050333881987295076
0.05183281636741351
0.0535975229379522
0.06164725543800727
0.07917345498755543
0.09715032323217358
0.11445844504044601
0.12094855449286648
0.12591399667839878
0.11881487914706865
0.11784998676385026
0.11578094855863191
0.11220404448543042
0.1142347085670863
0.13024676757744816
0.14318035411028526
0.15317801067087655
0.1565863964236409
0.17516857102729158
0.20564450810533988
0.24631402398974422
0.2724251121060166
0.29074737904935044
0.29283238070957945
0.29192136820529835
0.27341230096698826
0.24556478250115998
0.21147354312233704
0.19644847703825222
0.19268411207337993
0.19236801726930927
0.19394848094684827
0.2168443696476813
0.24439991499293395
0.2686365810063538
0.27743424660064464
0.27096269446076743
0.24922576649629402
0.21794184981742354
0.1782245000931653
0.14445896068990044
0.12668488749408566
0.1305721771675374
0.14688727368937793
0.15537891807143603
0.1648145311400541
0.1684980067855097
0.1659248286597806
0.15501056009756056
0.1418121442394135
0.13218598880060967
0.12386436016120424
0.12336395227794009
0.13117923784889363
0.13680773624306164
0.14947304139854978
0.16173908984121077
0.16729334803461104
0.16843828516674467
0.16845123030524847
0.16688274796237476
0.15980209049142458
0.14922810301691858
0.13602839497153965
0.11961512715677411
0.11907813107083771
0.14434253898224106
0.1891682052767696
0.24018647846683228
0.28201664292477685
0.3002770681193531
0.30064753553335727
0.27802866296493683
0.23099593988769052
0.17180104791839676
0.12751959534250676
0.10827365013388963
0.10552744206077244
0.10927942157360282
0.11158502314254998
0.11279668394156195
0.11974541949061956
0.12710026788070866
0.12610431424029994
0.12780277800082238
0.13190858614536044
0.13389974883789996
0.13243478366673095
0.13153067163937
0.12522035471275197
0.11970222353908128
0.11876509072864669
0.12116081848973789
0.12007538691515253
0.12296559449732854
0.13798657827512387
0.16622376085433305
0.21656863412971636
0.27616418923348773
0.3339303254921758
0.38961450350363913
0.43661007788271367
0.46480147095819546
0.4593127112099278
0.43045954097178124
0.3887582129939138
0.3392869992534793
0.29107560975813557
0.24509876707948272
0.20613051998948387
0.178837740325929
0.1622418558644233
0.15786371737478755
0.15694625680071025
0.15720748209356275
0.15497908689235376
0.14821064945521487
0.13664248850365474
0.13088049447536584
0.12557268701608482
0.12226395107085407
0.11918383924199405
0.12199462481906033
0.12694151573436585
0.1292602609351545
0.12885366447574614
0.13071680357429044
0.12927301701345403
0.13336856380120216
0.13051954313569789
0.12485330100634061
0.11949808714998778
0.11748535756731252
0.11389530287237964
0.10799810171831405
0.10579141827578062
0.10820486433232837
0.10962728706342743
0.1129969039818338
0.11576211529774498
0.11875581500714566
0.12767847379185432
0.1356191590480164
0.1436735280988325
0.14250377616338114
0.14311006319451783
0.13670423222771863
0.13178349334697698
0.12729660495250314
0.12514120889146194
0.12701098147882847
0.12892654118758795
0.1296395988885049
0.13491973035990837
0.133966745054538
0.1362942262288375
0.1360283065579808
0.1397371287839621
0.14149495575892915
0.14089007641862913
0.14327717061687795
0.14164494534804428
0.1401864775565922
0.1417050873422512
0.14450988501308568
0.14819945798439993
0.1484382259920033
0.15290738685441824
0.15641396801449942
0.1553725142683777
0.15198468958125955
0.1491884897961843
0.14618133218207077
0.14357110153766658
0.14109793990189934
0.14038262461977333
0.13940216308193945
0.1376961500974226
0.13530890355685285
0.12872394456801098
0.12898599295532828
0.1331766385405821
0.1378450816976376
0.14382729333213254
0.1489654079074795
0.15700968865035858
0.1569210077242591
0.1541919485724958
0.15071625161799132
0.14499624133729055
0.14330227131065848
0.1459308520424791
0.14494026773456184
0.1457814991608625
0.1437486219407168
0.1414646968552281
0.13838263157382852
0.14097664335356347
0.13912697493303913
0.1395429041342118
0.13999715718472455
0.14633472293251176
0.14923784364243614
0.14960094770971888
0.14542832829043317
0.14186657792224078
0.14102004621742203
0.14206146976693154
0.13996668310081928
0.142233037896441
0.14169295824259848
0.14366581444627674
0.14396400513899493
0.14013190989198357
0.13664878852119997
0.13961525880147974
0.14192935739549015
0.14690182406389116
0.15043487187943413
0.1555764729593815
0.15904467228037447
0.1617232660433824
0.1645236783948278
0.16418806864518423
0.16442111409013793
0.16599931544264765
0.1599363571055905
0.15888718557141104
0.1566103396825794
0.1552753960138888
0.151620838046331
0.14455616782745737
0.14177875311567015
0.1378490572522769
0.13869094049446593
0.13804897534133367
0.13484642501857658
0.13329932762348082
0.1297865240971607
0.12361499486663827
0.11471053647019637
0.10124275639670252
0.08874139177145399
0.0777199902383637
0.06924527213566634
0.062275192892307485
0.05282925323097695
0.04536920080245688
0.03947546817781139
0.03746311905216257
0.034885265973984704
0.033161771507933556
0.031296096374191604
0.028367853071133587
0.0261843851427519
0.026041489761000305
0.024319104903144664
0.023626922979688
0.022789242970531018
0.023956176743319103
0.025060309747114356
0.029520712578837097
0.0333549600180055
0.03361439235512597
0.037669818077409135
0.039658453847073206
0.04454517040101249
0.04745608937920833
0.05181785696001959
0.05534265426531638
0.06152642824991192
0.06608677846736584
0.07166589572145173
0.06983301910445375
0.07416173495286181
0.07471065710588036
0.07936659616958334
0.08051834494930303
0.0850779230178123
0.08833125161746133
0.09604960810915078
0.1008466789753357
0.10786117076331761
0.10998685472034833
0.11856102469609854
0.12274385033569206
0.12645031294121853
0.12668470510560356
0.12979925611596482
0.13096601358288656
0.133692035166722
0.13180456363647067
0.13466002339894825
0.13819446674990563
0.14232649234636538
0.145920281775035
0.15083728873694602
0.1555579300696458
0.1613420907253727
0.16387682340283286
0.1631912377574904
0.15963246161871789
0.1571429497474202
0.15898754079593577
0.15807364633533189
0.1551458409398784
0.15594414641422694
0.15938774820088014
0.16300951834389155
0.16546584966564515
0.16607340442785562
0.16500962271562214
0.16222028588740622
0.16472777640102093
0.16072720860583425
0.1580187421234693
0.15635443316959585
0.15752252806117023
0.15905558614309342
0.16141082587715627
0.16188912653312412
0.16184302988210517
0.16260430408824683
0.1647752431389966
0.16384509364551336
0.1640667566678524
0.16482553725192214
0.16342900469255983
0.16072819771636393
0.1621063494164341
0.15918404261469588
0.15733407769368926
0.1575491107752376
0.1556983840074263
0.1548176310587163
0.152075901742998
0.1525381829555037
0.15124737557971074
0.14804477947822775
0.1518672403537244
0.15072590357329063
0.15187743531524742
0.15313374873647717
0.1526731849785757
0.1540152445592081
0.152835299393666
0.15285331349590567
0.1507091359532769
0.1445187643635833
0.1443285451112406
0.13934209747714116
0.13804313953910105
0.13843006745700154
0.1374330321649413
0.13768635115420252
0.13808377743325947
0.13725631787781462
0.1362410956214566
0.1357018616525793
0.13581145522793708
0.13328563307496274
0.13530817198740794
0.136150665371288
0.13597901545949292
0.13670148403100912
0.13505454029456807
0.13345807926389291
0.1320918048660631
0.13084847954367224
0.1278577540972443
0.1256363073786121
0.1251969915187182
0.12333502936901994
0.1228471320182635
0.126671756587685
0.12955409613721175
0.13312238491031336
0.1334631638060909
0.13589682026984792
0.1367899103668588
0.1360594007821723
0.13513645009004893
0.13218873024596725
0.12875109954164282
0.1294905243489867
0.13083230202689053
0.1289044211620488
0.12525556417529585
0.12417933230430035
0.12526425015074286
0.12600731631793072
0.12767374639101353
0.12996616078359763
0.13197873609269944
0.13364571772108655
0.13551325085194538
0.1305599366407964
0.12572058643262424
0.12132008069962677
0.12037982283649314
0.1196362597322128
0.11966665873205524
0.11988326212534563
0.11892393671925236
0.11872115224269308
0.12029817771497771
0.11926796851026794
0.11898733950601396
0.1203136495005101
0.12446380346357093
0.12638357916912807
0.13128973239631628
0.13322229462399973
0.13573171178782192
0.13765988818580915
0.14217006687884204
0.14276295478822082
0.13881973260550207
0.1367014044269012
0.13209351375655554
0.12590178170043134
0.12276902586421891
0.12082839282665515
0.1193331283124006
0.11726683452032455
0.11959732235997023
0.12046139515707463
0.11658175883551086
0.1179908712496462
0.11682737679474485
0.11710498766578492
0.11750315998061404
0.11853015527073
0.11869605679296799
0.11989543605770331
0.12067642541264122
0.12445472976016944
0.1245859709917146
0.12781503169396286
0.13049137115410595
0.1351595305514654
0.14049558164212325
0.14973547376480736
0.16016206003063538
0.17522214025474217
0.1947014409632322
0.22306652866813445
0.2508691932386641
0.27894254636151056
0.30440679446864194
0.3259378272355985
0.342263390270884
0.3548146626731949
0.3584958637643003
0.36226422737878566
0.3675993316472366
0.375762958897979
0.3865338057902671
0.3943009872742202
0.3994343600262497
0.40285691290498493
0.39832511592414277
0.38896065836844473
0.3730729795310467
0.3542228173653839
0.336741837802163
0.32029811104637723
0.30875314063751463
0.29653061216793614
0.2899361817743067
0.28439954370454257
0.2794366556902854
0.27634041187135494
0.27340296330479713
0.26983258502744567
0.26530079884542146
0.25892599260018656
0.2527304957506514
0.24446368821675615
0.2384330184390451
0.22592657824195234
0.21851857136791045
0.20837861313581624
0.20120728784563732
0.19272802119949622
0.1855472352084653
0.17804675923769547
0.1745718335850594
0.16832204238552445
0.1650288300736812
0.15631181988139695
0.15459874255919684
0.1469631062215419
0.1441420805529536
0.13914838844991545
0.13656557198768104
0.131885053199446
0.12999457983505616
0.12611591214462617
0.12399941649778246
0.12200242361793555
0.12175957765974273
0.11886601799698301
0.11791566068708714
0.11771182962187672
0.11575799938709656
0.11412445368081504
0.11346754553926958
0.11191306337616362
0.11145873665647506
0.11379463239438925
0.11347543022534058
0.11491886346472516
0.11388961960523596
0.1159428400962496
0.11626591038327191
0.11699495225507293
0.11544347925376569
0.11264828817146522
0.11299955345411868
0.11501389377122606
0.11534112291423873
0.1180153835407262
0.11739793315760973
0.11816941278266281
0.11854228581126341
0.11816717038432989
0.11585462583743424
0.11489559325976616
0.11555262842326741
0.11561303492445263
0.11569547540692458
0.11763551694219297
0.11803818394055174
0.1207199732502584
0.12112435450242653
0.12245248471470085
0.12266114451354457
0.12356176121643597
0.1239753978604259
0.1210256987807189
0.1206484006726414
0.12070697565389468
0.12050996226307836
0.12114284471090969
0.11870601214130817
0.12031064931292046
0.11997254708847911
0.1203571097710024
0.12042722238262027
0.1213513934087862
0.12358943953969123
0.1244863597516798
0.12459186826239492
0.12554466303636494
0.1257372521964313
0.12705725155235967
0.12485149236569058
0.12414662129707173
0.12285808377862344
0.12262460134924778
0.12334944971072871
0.12228087670676116
0.12260984996709101
0.12418089437792128
0.12425264850495087
0.12363417317931451
0.12318639036928108
0.12358008846734697
0.12399260503120567
0.12407490271620457
0.1253655130062051
0.12361237001786816
0.12452324812082259
0.12452713495073556
0.12506578327565787
0.12406510414736692
0.12486825111761145
0.1253458313858702
0.1258644655077682
0.12655569676581893
0.12723647790101747
0.12698049298210592
0.12771697299208604
0.12704343478196564
0.12773263973034304
0.1269154031629114
0.12685630000363482
0.1270093046122571
0.12704618954446248
0.12812181526775746
0.12823473394081697
0.12787950783592092
0.1268281713373904
0.12472484839190383
0.1244944306328055
0.12561856637894644
0.12440531280368268
0.12510363461349694
0.12649340689932798
0.12819803547714523
0.1289697457354512
0.13085881476563646
0.13151811909947694
0.13198501122831857
0.13258814079472833
0.13250840545868792
0.1305844490402668
0.1294473246657731
0.1291905902608214
0.13025005410826143
0.13088010951922557
0.13263665654211643
0.132816475811574
0.13376713285726474
0.13303085384178442
0.1319941291277872
0.13139005794594447
0.12954561181923796
0.1285386877735437
0.13094500152062827
0.13145467881340142
0.13285085898545873
0.13360570524362678
0.13491209615686128
0.1352663865916238
0.13594441502835966
0.13586083098625917
0.13394064858683183
0.1324242114292409
0.13175072179923666
0.13093852054871766
0.1304026048208799
0.12994606761797417
0.12974536503473325
0.1300772076970234
0.12968682102196427
0.13014386082808074
0.1289455468182777
0.12875396957939686
0.1290057679752242
0.1305791821302089
0.13179075900526868
0.13323180035691914
0.1334089885172158
0.13332501085321508
0.13226092669682316
0.13231876547996027
0.13116166788992004
0.1300481307682911
0.13095572090904037
0.13185525307788898
0.13219716894903366
0.13363752220163091
0.1336389302396496
0.13482542080606214
0.13405115721728625
0.1331139161550327
0.13232838388325727
0.13212678343143924
0.1320597803686208
0.13242476586687235
0.13160045106155707
0.1321416919291518
0.131037449534667
0.13082874637010927
0.1303471604641067
0.13138698254529294
0.13156289720957456
0.13255165141167677
0.13253834291795516
0.13278140692034393
0.13296630571337084
0.1326125584431869
0.13274696577735637
0.13269198651895903
0.13155919436700747
0.1310045676569665
0.12877412932630597
0.12889540793505908
0.1281291584796409
0.12779256268120132
0.12976630680324677
0.1310324016808912
0.13232724234231788
0.13196726875868509
0.12955840725964993
0.13024481747045802
0.13049685468214123
0.1305530862075122
0.12936604580953026
0.13052420507836002
0.13227830993931747
0.1316069010452486
0.1316282832846932
0.1306554233797773
0.13001239902429812
0.13161444655022658
0.1318178231086127
0.1295404769373314
0.1279871281544687
0.12740323942611062
0.12736705899522063
0.12503688365867988
0.12641421287721943
0.12633765145853842
0.1281467572854704
0.1305002100590356
0.13285181810666846
0.13265028436486972
0.1336016160256014
0.13400840690589869
0.133535334516233
0.13106922952484748
0.1303748527965572
0.1293399339595602
0.12906382527552834
0.12775922035264853
0.12865848755939932
0.12804873079241827
0.12779677544721493
0.12847650165295071
0.12776476119299562
0.12780840608884556
0.129070693774282
0.1288516584627004
0.1291287585827952
0.12944567137039317
0.13018268662396706
0.12971844687591677
0.129314795249593
0.1305343400421631
0.13026572255639096
0.12949767513871605
0.12951969476514535
0.12893167294141922
0.1296350086369242
0.12983894383249395
0.12935680347168602
0.13009344299409825
0.12966348625500315
0.13100891062246456
0.12860185651824246
0.1270056678919282
0.12675619564696095
0.12780850414485664
0.1281021848544459
0.12776515989343945
0.12780690695391833
0.12891539714019373
0.12802421831723115
0.129202363857515
0.12791070877300406
0.127215695653056
0.12734550892220342
0.1285387062742554
0.12882477565917053
0.1295623700759215
0.13132538667757868
0.13311475267677716
0.1324690500296447
0.1327624013975208
0.1317788341349364
0.13047942509717964
0.1293481721334136
0.1275726683318444
0.12643895191720197
0.12639645037286013
0.12798793505289618
0.12839935923373869
0.12850192063192614
0.1285860290340004
0.1285030463162659
0.12955976408742828
0.1287796573738197
0.12856195431135778
0.12764483988398978
0.12632909819246121
0.12655762611880686
0.12719652570212575
0.12801419855140792
0.12797700667041303
0.1279354198063558
0.12914438689773738
0.1305287888866468
0.13136267152610623
0.12927105399252323
0.12883804765310727
0.128971244842716
0.12897234500185947
0.12878606402643375
0.1282776053527393
0.1284011518792106
0.12934341658377946
0.13141902512191161
0.13152701184224544
0.1317139953293087
0.13319343656886876
0.13309944426395054
0.13164983513493064
0.13088084414441442
0.12881158140655657
0.12746099252664278
0.12769681720603138
0.1287032008609266
0.1284577708952211
0.12946692501970164
0.13163388341335183
0.1312077365715834
0.13094033286034745
0.13060351907919363
0.12958886198650496
0.12988764826951224
0.1309605845570468
0.12983113817821212
0.1288743286459132
0.12914802889986177
0.12966352319235447
0.12810803572978566
0.12807001929865627
0.1274406663538853
0.12866068274451417
0.12957286486612962
0.13013574031572162
0.12995867169402547
0.1300165658126327
0.1300121247729634
0.12996955801061558
0.1297540487159038
0.13067238013039958
0.12922945624701193
0.1291312692653826
0.12950318553152315
0.12938068754526924
0.12877069596614465
0.1290906184053907
0.12957644792040018
0.1297179271314571
0.13001495599845392
0.1304675408208977
0.13107568715277454
0.13183939935255337
