0.1772846546741568
0.28754154884148214
0.3862067302642797
0.47328014520100553
0.5487617310238623
0.6126514248112328
0.6504831882231987
0.6778374365123029
0.7097486139315092
0.7605923898088623
0.8265649528404994
0.8858228879582826
0.9337186104956896
0.9663851389505798
0.9887181007528397
1.0
0.986784545837353
0.9609251118189794
0.9270917175237836
0.8912719323803922
0.8655176648517418
0.8469816809221165
0.8256514412287107
0.8139759240521828
0.8006611374361647
0.7738129725406888
0.7206168404937844
0.6523350222799666
0.5678168549228673
0.4808830124369086
0.4045961264511697
0.34811130040345095
0.3077420344823545
0.2906760961941218
0.2723265759351561
0.252512749183425
0.23207808400580324
0.20902784825766893
0.19085182856778757
0.17922814036901216
0.17308700055981538
0.1825081827292755
0.21218847997676274
0.23626385932594116
0.2543278616373814
0.2645255861852578
0.2666129174066127
0.2584144741557177
0.2534435815231554
0.24226467594893697
0.23108127592541441
0.2347466603141002
0.22835745814117941
0.19949991129163344
0.17268321078953508
0.13296224316187627
0.08978463902163375
0.050933106022124815
0.02412728779092881
0.006903034590129854
0.0
0.008670183679134887
0.010109188900222273
0.022041000577393218
0.043829822564672154
0.06795448102481226
0.09468644942464007
0.12171186326405078
0.14113993323654142
0.1501877060180522
0.15111687463043
0.14373907657826138
0.13044694799592013
0.12833378478476798
0.13565469278649794
0.1544189600943894
0.18342327929025865
0.2141276171523588
0.24398860964130212
0.25863651120027314
0.2658201238345182
0.26175963020231163
0.2510542254107473
0.24154728504703768
0.23399804598770657
0.23314091146792895
0.23741127646083435
0.25479673608829884
0.2711617393838643
0.271883367211679
0.25904263946033196
0.24275214887221888
0.21987673672625457
0.20493726966993395
0.2030422312262552
0.21556402999595586
0.22848861211014612
0.24294921543907447
0.23839361934814
0.22727598657800516
0.2049177785472036
0.18369637949549933
0.1577149288426446
0.1480818380010288
0.14037683222291758
0.1343388333394799
0.13023474111459982
0.1218746202201264
0.11576581089029939
0.12307678563394142
0.13556028548921736
0.154318313709535
0.17377945369718278
0.19866456062694843
0.21159847889011318
0.20825520829097804
0.20205504670748808
0.18682198189172364
0.17745176882323402
0.17688746764665103
0.18520693726904144
0.19927991199050646
0.2219231597850545
0.24341867312723978
0.2581996033840625
0.2632709857857103
0.28574742153244803
0.3257517270903583
0.3824997039203492
0.42627966277048585
0.4475988802495786
0.448560874673001
0.4460464778074453
0.4176220965498478
0.37539018678683905
0.33515768274402935
0.31149517504720015
0.3051344260219469
0.30366322030514015
0.3095729290393433
0.33647732158554655
0.3809341481884357
0.41692679611080297
0.4253557790105008
0.41105408873194865
0.3803482391909088
0.33062615792457356
0.2695634799377275
0.20576980948099532
0.17958417359403048
0.1839950138191633
0.20909398323078446
0.23125578949599207
0.247660683281651
0.25659887139196563
0.25534527597119716
0.23649565572482426
0.21274286108603874
0.18561211448739767
0.1740635964757521
0.1667899486282269
0.17743155054047727
0.1997121498559922
0.2254649189171542
0.2479894773692627
0.26204284259582183
0.26492683892841573
0.2684588392288958
0.2612140330065902
0.2528754155741603
0.22787137938600846
0.2001848917030782
0.17397141051692308
0.16350264565905212
0.20396417669617709
0.2831549425964093
0.36795100228166533
0.4368967817801318
0.47815209744693665
0.48864839767741364
0.4520829740976831
0.37673986178269614
0.2889697718552262
0.21262366846244177
0.17945774307542364
0.1659046134559975
0.16025486247839796
0.16026560846186805
0.16120329472140688
0.1729447646612259
0.19082421433302366
0.199743755735285
0.22035983820728358
0.23406862910110704
0.23501762745580937
0.22736677161090907
0.21287549436270464
0.19427331146770102
0.17462362156235967
0.1755708875707591
0.18363696347384054
0.18167985210280138
0.1951207457442955
0.2214641354494711
0.2761458251025617
0.3624458424560832
0.45682839746612436
0.5540544772454448
0.6407992829835735
0.7140798797485427
0.7529323868850801
0.7412615411620225
0.6948955902617305
0.629595099511266
0.5586479721909331
0.4866832822600102
0.4063773997243331
0.33732622320537436
0.2864284374984031
0.2611602429693892
0.24695588142154687
0.23397827524093678
0.23922860804383195
0.24432820321528553
0.23657463579410026
0.22010480437885627
0.20285931648789982
0.19122206166551867
0.18863499622780433
0.18433581091421372
0.17972246693283342
0.1762290343397424
0.1857939009329434
0.18834623230565853
0.1878650011015351
0.18745382909135766
0.18802343780345623
0.19233905378055
0.19155613146496062
0.18851210343043875
0.1824933390643255
0.17370669520940413
0.16970032161125193
0.1685649091164562
0.1651379095813374
0.16643511401463065
0.1649522229209356
0.17426576388744144
0.17628597750857133
0.1817693458599228
0.18789980233735998
0.1950649259758039
0.2053443627268409
0.21045784691793426
0.2072283531529831
0.21330244631992493
0.21298635191348522
0.21970322751745613
0.21986644194848365
0.22295999945254416
0.22509835945624432
0.22236436972053678
0.2209616175757508
0.214297187053556
0.20912961017337184
0.21293934594374864
0.21185080114731475
0.2115711272299281
0.21216726363090888
0.21052957579077763
0.20987896940535047
0.2133325561270852
0.2135482538460765
0.2194457771632227
0.21863841783353274
0.22329911510819275
0.22488096082864517
0.22084270093580702
0.21789297484421344
0.21264219004081084
0.21308490452342774
0.21450942561292458
0.20462361989265232
0.20361835398796607
0.20012645973001691
0.2035682687355548
0.2092049597540639
0.2099649188019239
0.21750648255727953
0.22642750813160215
0.23135290430593336
0.232443966624832
0.22756075597498682
0.22881720166429223
0.2328369669701842
0.23028763572577873
0.22843246931015712
0.22831243100002416
0.22857700903905287
0.22824114469108056
0.2203907729460966
0.21195058274257628
0.20637539019167714
0.20373587780977398
0.1994100744804292
0.19208792461954355
0.19196536961464336
0.19312995415132192
0.19792196208408708
0.20515768545487603
0.2091457694936366
0.21766363900585373
0.21964142585810656
0.21824058373092384
0.21665412805251602
0.21404569604438292
0.21205607869136409
0.2052148896281355
0.20829777510242148
0.20488783070107666
0.2072428976388872
0.21195459909784853
0.21901220130587346
0.22352731291867634
0.23000583076719125
0.23399248072799414
0.23629764261382744
0.23613435560068835
0.24096835486341073
0.23856525899008252
0.2414217757467086
0.2431918039153739
0.25139054478884815
0.24965030712436861
0.24346474798973053
0.2377454051924661
0.2287404293900977
0.2200211615620338
0.21152211202448093
0.20279423402659252
0.2019886366881256
0.2008050978486362
0.20175902973565296
0.2023934427275458
0.2018035234572229
0.19941383963059267
0.19312835623362806
0.18569257930226907
0.1688107694668567
0.1572443199649404
0.14107315224755326
0.12214041979859223
0.10343541884951149
0.0895583594951508
0.07447890241099811
0.06393903233539573
0.05653359876790867
0.04910686630552025
0.042234792827320296
0.0418494134486434
0.039389868664272784
0.036632804812574964
0.034488690655506096
0.03305145386297029
0.02928374660594263
0.03180328554690396
0.029320317255672072
0.023860627824973706
0.022187934859242055
0.022813392875042294
0.026671358482113144
0.028126660817880716
0.03410614345243948
0.04295469513947441
0.05596380502167391
0.06742675971076738
0.07704254992467913
0.08472687845129635
0.0910001960354452
0.09556185207539443
0.10267760382991305
0.10777399335057608
0.11140346633998804
0.115318790446966
0.11933710250733388
0.12310415802190522
0.1307508731808395
0.1347984570061538
0.14254098579479366
0.1519414562702412
0.16702725758611953
0.17972421775869524
0.18749009820493107
0.19518261405242468
0.1983960305106799
0.2007923503158878
0.20100251870673105
0.2006535483819628
0.2074683711642525
0.2105662908213977
0.21949313453626834
0.22601230420957252
0.2310197843423278
0.23273582082107033
0.23375290542052424
0.23569338027898956
0.23783322905619395
0.23714268454313528
0.237910657615196
0.23735095697300249
0.24156178781648915
0.24125485974952046
0.2410708671164018
0.23838588775609038
0.24135549908871526
0.2488221453394227
0.2506535466273091
0.25328601333928574
0.2533869840739065
0.2539318389525335
0.2559782372915559
0.2559046770706219
0.2527021390679869
0.2503926030800189
0.24901376073522818
0.24783167318745922
0.2445376083209533
0.24724135511090406
0.2461168317625331
0.24759520926017645
0.24907878439857387
0.2488226023838167
0.24855601880252037
0.2500173632469463
0.2477164396811097
0.24632889052243137
0.2451473054950851
0.2462572513415193
0.24430370072836996
0.24767560848900788
0.24606801651289148
0.24710722935127372
0.24830775972342042
0.24598383773407323
0.2430599536493228
0.23954118426542365
0.23598304422094873
0.23273795893092517
0.22790223640107668
0.23139851230625957
0.2284498434884212
0.2305535424937844
0.22863596618718435
0.22929415893880756
0.22746120721708243
0.2231959752333934
0.22427308481538974
0.22101861980205742
0.21941582105849122
0.22067855479186047
0.21765061280585007
0.21771393246273704
0.21660004028712213
0.21421869872885682
0.21112940046101092
0.20636199887005535
0.20450982192524747
0.20495464591900994
0.20704214140102056
0.20854773935117876
0.20994512965559994
0.21112592146666487
0.20834491152281787
0.20358280880139545
0.20128394773437036
0.19258630413458327
0.18979888926189856
0.18900048893811142
0.18978035328618884
0.190455311085816
0.19532080532604665
0.19470264634869977
0.1954321155113468
0.19875895719182932
0.20198477890319771
0.2036520285575068
0.20866528948025384
0.20971021615091368
0.21480927216424414
0.21468529747720658
0.2112557749764508
0.2027788096913001
0.19898690680501224
0.19412684183807022
0.19160506605280156
0.19061819003909478
0.19052526637876518
0.1919803420412525
0.19226688811802686
0.1907168989526531
0.18856650283061227
0.1914241134139566
0.1925348415002818
0.19315288111653112
0.189587105608845
0.18841606049683474
0.1858222878781901
0.18375036188388913
0.17927173717151437
0.17989901191844826
0.17868333770512543
0.18068273196503695
0.18050056155617136
0.18082599395645318
0.1770430298519826
0.1738713379000843
0.17372038124249733
0.17693307715548665
0.18317102940580848
0.191405500724589
0.19747181746947248
0.20518731630391873
0.2125712106193375
0.21769233837684887
0.2160836888518203
0.20783550845443324
0.20161563420513967
0.19470320703138863
0.18657929486808095
0.17954055288329027
0.17559486754804798
0.1732577321824921
0.17214111458878864
0.1720239550419939
0.17460288433031762
0.17354291764412555
0.17662763080615804
0.17999474474963112
0.18125747504697468
0.18506801814959173
0.19006839202554443
0.19196772344106416
0.19255753269609974
0.19315105542439198
0.1949622631953687
0.19526601729915233
0.20085783133223836
0.2033904206261002
0.20928929772816487
0.2208964657050208
0.23282910159517747
0.24831355345787903
0.27416329821128804
0.3077523303920956
0.3448978825685131
0.3957296825518299
0.4463186034613493
0.4883666843809076
0.526422074595813
0.5545511824815059
0.5678446760243794
0.5761795617537626
0.58210059103626
0.585846802997284
0.5950255891719431
0.614198635104324
0.6294548554984384
0.6368505199136845
0.6422603515836066
0.6407750184646201
0.6261089806218988
0.6050303683779755
0.5757432380316935
0.5473710658680134
0.5237806652398196
0.5017231778663591
0.4837027456305939
0.4689837815861805
0.46174443759552686
0.4590156084656754
0.45668210067060305
0.45540258230878733
0.44848541714232226
0.4390032761431722
0.4266717846952561
0.40983035917501054
0.3927834857211196
0.37512044288141133
0.3580052452954996
0.34417212547292314
0.3327952013190672
0.32304404440732154
0.31331660219001045
0.3004495609402483
0.2903489793896689
0.2800589696276533
0.2676568557821964
0.2554297343206563
0.2433769738068808
0.23446237424378377
0.22420914309769174
0.22014730016540676
0.2161079287577131
0.20892267275746834
0.20491673450800427
0.20222122635602904
0.19574557164628453
0.19038910314586927
0.1872564297838024
0.18608498246373345
0.18207748296115028
0.18179827427254192
0.18005754420597866
0.17652508780612328
0.17429995531824835
0.17404916375045398
0.1737324575201636
0.17222557079161238
0.1731510491021518
0.17448675325306498
0.17589360138384158
0.17455535886448456
0.17442855877903518
0.1728413969154254
0.17272618957233496
0.17316640619027343
0.1733538311729542
0.17240807716628095
0.17373081639481114
0.17458721104931954
0.1762402166300156
0.17508419254673793
0.17438553303121
0.17378287890824362
0.17289233175294758
0.1728731729791227
0.17168107554519957
0.17172974659263576
0.17329866723248788
0.17267408380466115
0.17278416040405137
0.17246004579853486
0.17149851349484915
0.17296316214270388
0.17619959743008565
0.17857261107103745
0.17955870398636367
0.18143644395556566
0.18205798908597406
0.18193768461427007
0.18280817203928768
0.18345115615609958
0.18201214073752076
0.18416743209734815
0.18722329919070976
0.18766932231217567
0.18828503735100957
0.18717539378851208
0.1858971488759521
0.18641767491057992
0.18687804507004
0.18569909578061167
0.18446920675025597
0.1862251703209186
0.18761006379642012
0.18829914370329404
0.18756158075974166
0.185726910219462
0.1867795228938188
0.18919447607618636
0.1904812346099971
0.19128973136706537
0.19256319488502013
0.19098086997150895
0.19131230235467098
0.19007881969226642
0.18963146114237167
0.18776850529109684
0.18916927648632278
0.1895384269292977
0.1884385098408891
0.18871242299489047
0.189800905269168
0.1904047090139606
0.191313721417493
0.19088127041324707
0.19102980476678785
0.19015778367208205
0.19003876468635708
0.18890426788850836
0.18783299033750503
0.19060641817924928
0.19242392300935685
0.19475678001536845
0.19301192887365579
0.1923425696224738
0.19291597173073793
0.19345100586828787
0.19292825084499138
0.19373947867742788
0.1938004046394147
0.1941040373047067
0.19280072847663315
0.19235445391876482
0.1909561798448367
0.19043818677574964
0.1890365710738036
0.1891341069047286
0.1905912795605346
0.19381906429255677
0.1972566290843704
0.1992258279703631
0.20162214205656373
0.2019371839526376
0.20290568710062254
0.20186583921023465
0.19824946195099463
0.1974805156482875
0.197479241228953
0.19855732132970016
0.1986395060146416
0.1984390558050147
0.19856544894795375
0.1993484074919448
0.2001610736082711
0.20029987943184985
0.20162867026755785
0.20012743435473387
0.2021811883890131
0.20188382920391895
0.2004268704458554
0.20119924034578085
0.20233771192577132
0.20454195819026944
0.20427021821116786
0.20492042003810584
0.20595588255036665
0.20254434225155396
0.20205439830864
0.19993803666084867
0.199538999821479
0.19942265206739992
0.19962531730749886
0.20074282348030165
0.2014804010910262
0.20160814494975662
0.20190686755521292
0.20110434435171495
0.20112295204660952
0.20153422842946117
0.2030016481595272
0.20384687086574615
0.2042370214056584
0.20488067564918833
0.20416715254178458
0.20357207757658277
0.20388522023252567
0.20086979951102388
0.19944870529527498
0.1977224411770758
0.19735611132701977
0.19752410748983376
0.1964171697931785
0.19662538990494993
0.1970163294990172
0.19672827901040638
0.19660061102164722
0.19551442120640453
0.19536041333503792
0.19619735587337805
0.1964776899869898
0.1972754198356351
0.19692115759808945
0.1982351103810565
0.19841533669062544
0.19761535561998597
0.19727013641602567
0.19849428353265577
0.19781804859059618
0.19779089815635598
0.19808805292885723
0.19885850827495485
0.20119429826405283
0.20212651276764337
0.20026097925719455
0.2003400526260971
0.19816750043856565
0.19901359133398913
0.19770294825791013
0.19692939296362624
0.1970900575497901
0.19716074369147524
0.19863052340145357
0.19770473163006036
0.19644096832829322
0.19867010942239222
0.19760141273795592
0.1983607400962199
0.19733841569779015
0.19747190119308433
0.19776856809926358
0.1969244475971955
0.1966677385879829
0.19688116679422707
0.19867025178869233
0.2005009003732454
0.19903415384870754
0.19826330416111562
0.19684827060453994
0.1972843036509436
0.19824034373796307
0.1967880264029134
0.1966860016201974
0.19619711129257286
0.19842122892747505
0.19890487694762957
0.19870843120796547
0.1986531203150056
0.19882920070694451
0.1991690006501012
0.19887387612245241
0.19575994770816138
0.1944476658813546
0.19330814384511236
0.19541416392427266
0.19487285508798569
0.19617382015266158
0.19578855999494885
0.19456987974674814
0.19375411805922355
0.19187483291448085
0.19075494695990852
0.19133751629440598
0.1898729589031389
0.19232185928328308
0.19320197779642354
0.19581624814611504
0.19655949438691084
0.19509334240058152
0.19598864431173613
0.19634412108510063
0.19610115258122987
0.19486270650401136
0.1928093065173823
0.19391168927586222
0.1933373762279359
0.19474577037401447
0.19670205205250116
0.19646738943369305
0.19804862469587978
0.19714120628444937
0.19653820356123966
0.1959869787267924
0.19623208010969104
0.19620868104881972
0.19482939382923845
0.19651166205444676
0.1975510478200027
0.19653077628350926
0.19521062956371021
0.19488563704043677
0.1938637808943533
0.19313777780408153
0.1944854618584419
0.19549738824401236
0.1957900721188846
0.1996320629907115
0.20167199177249717
0.20088564431020905
0.20081961583679944
0.20082419066347973
0.1989681956799082
0.198071754284828
0.19698880086748471
0.19549374775077538
0.19373551526872287
0.19426800391278226
0.19476747465277947
0.19339299094588414
0.1938264976301743
0.19387962581895674
0.1959212873412353
0.19546642958628588
0.1959398112392248
0.19433185556843532
0.1927678205526678
0.19247504654644584
0.1925646754426075
0.194110640909715
0.19603006894387168
0.19682045678131124
0.19973962724619654
0.20081692676326757
0.20160006603655758
0.19822667467830107
0.1956782044566182
0.19431565609923676
0.19275382584972792
0.1954056333606237
0.19691969368852366
0.19866773640289734
0.2011461316586516
0.2033757715745758
0.20273511796226687
0.20002735244796532
0.19838392295180685
0.1986666583716752
0.19786144231699165
0.19848606021353737
0.19715639421622275
0.19577205983972615
0.1947481717511001
0.19417496950100466
0.19242356202380353
0.1915289315326496
0.1946631273331379
0.1964160804947057
0.19774437693424704
0.19802083500299258
0.19820203839317285
0.19811652949440092
0.19681224530405
0.19342285166001263
0.19158965841685346
0.19002219033469403
0.19131945587908658
0.18936749422802293
0.1902306609792172
0.1911430270132319
0.19398167849314443
0.1959581360235339
0.19711755678865325
0.1976314383731553
0.1986774882274998
0.19910513911946504
0.19995672942793727
0.19967559196317167
0.20009819764287856
0.19858495392929615
0.196909153738055
0.1964650661866967
0.1958313734702642
0.19546381460342077
0.1951142322357685
0.1961317730976283
0.1966096122577425
0.1973130240029237
0.19824202014514294
0.19939661115241863
0.20077680522517644
