0.26205512202792297
0.36092576106957275
0.44925396861610706
0.5270397045168591
0.5942829286136871
0.6509836007483143
0.6790203569202455
0.7002178135213014
0.7359068092489015
0.7781249401590169
0.8338898426502784
0.8946159367495644
0.948855795878808
0.9880952869981591
0.999033332538556
1.0
0.9799527287596381
0.9490290046356349
0.9138495366195594
0.8690160718170288
0.8466876285902167
0.8352580093982377
0.8290788970802584
0.8203466586550803
0.8023571500590762
0.7721294063068966
0.7197362327895394
0.6523381597721823
0.5726183763683008
0.47890974730993513
0.40961892834646024
0.3592325576337828
0.32645264233818816
0.30208233360236036
0.2843195371840091
0.262209003820601
0.24257384404657908
0.22200037183702706
0.20228650258671202
0.17917695015362706
0.1699496921528699
0.17601352042619725
0.19233507582119955
0.20399748172000784
0.21691457181715368
0.2200275145664867
0.22439818600272896
0.22228595292972828
0.21602017145407604
0.20570734562424722
0.1970942615333925
0.1938715708083346
0.18016929845782487
0.15745124804144095
0.12769719977869656
0.09750716201423376
0.06816630789111526
0.03723668446087487
0.01755815701096483
0.005450585417994716
0.004541396073197961
0.006982989087876855
0.005991675991818121
0.015745648207860754
0.031271494285171335
0.058936153555874886
0.07830614606375444
0.09955912505518542
0.11706319734867814
0.1254405542368388
0.12523954661816106
0.10711315016927306
0.08953103849132574
0.08316727428567644
0.08954283521333287
0.10666198944153021
0.12641638402346692
0.15288338123564504
0.18263447014691914
0.20782730469869448
0.22369569497257133
0.21840412209235371
0.21000961150636177
0.20426041252645746
0.19612814218466482
0.1884554385682299
0.1906421373574998
0.19330543276083473
0.2030983477284323
0.20769279579947353
0.20206410621446041
0.18197347274172238
0.16290139490561795
0.14556661131478071
0.13470078438936264
0.13591676031702588
0.14438821025432977
0.14469085814843574
0.14188585752430719
0.12941233322526297
0.11803133073535792
0.10811235708458093
0.10014006070036699
0.09088786112902913
0.09017623213927994
0.08229930556051414
0.07183823331827227
0.05773786635879396
0.048425730048248246
0.042453888633119226
0.053473627005992896
0.0733331156430064
0.09685360833211182
0.1224565676132223
0.14335582208594883
0.1465652222729731
0.15077343290997547
0.14419700562035528
0.14285328735552041
0.14252824141858575
0.15025676145957353
0.15675606337912654
0.16671520805783943
0.1738839308339324
0.1798393594967706
0.18715091737788883
0.20082910271625118
0.22594391746911052
0.2587932210121672
0.2846322933256092
0.29874672860706925
0.2919884238662636
0.2822757458910311
0.2581941126436784
0.23416492725761573
0.20807752441665
0.19580199202449633
0.200951247692211
0.20297719487237448
0.2118315919985287
0.22799546108721888
0.25038190671700916
0.2714816889824059
0.2755611829699836
0.2667767672358411
0.248097982184426
0.22650727087847805
0.19297100452063895
0.15951646355493512
0.14693901433624587
0.1539727889995931
0.17552554303145515
0.18929822537912044
0.19812123458053907
0.20191942324140055
0.19849403756542836
0.18235971711911914
0.1566364425832917
0.1389439218152968
0.13354524933960626
0.13499071756409345
0.14846829033585465
0.16251087298632133
0.1797978656666033
0.18770710509631153
0.1875287050054922
0.18940422440812532
0.1835930927648735
0.1813243770447587
0.17675923356675513
0.1637809394259329
0.15090349021278868
0.13436787295268585
0.12858641097419898
0.13993763299434583
0.1786145620010268
0.22362761442478588
0.2571983219285413
0.2836371677563258
0.29052807128271557
0.2835151301332102
0.2555844126370982
0.21460674602931026
0.18130145322823837
0.1615585936196499
0.15557228828011452
0.14594085538006354
0.1417456046591486
0.1432243077782127
0.14467274185069237
0.156319357370051
0.16023061111372056
0.16641664354564883
0.16831983551821328
0.1625182786753929
0.15538621548371997
0.14713359388150166
0.14304705849776322
0.13827970062079648
0.13672892975385437
0.13076936497097752
0.12717219614797215
0.1322640741703854
0.1530385112712859
0.19872770847050797
0.2658582179727774
0.3460941859875965
0.42467743891425364
0.4874055003847072
0.5292846098507026
0.5432291993277085
0.5224633042085822
0.4807717995721194
0.4329834795775208
0.38115004514908984
0.32937134261562506
0.28189408123920634
0.23817405395965988
0.2044028917501174
0.18460494491893514
0.1811532962509777
0.17581252447811854
0.18124400781861852
0.1778349321964992
0.17159411769744715
0.16081408886140536
0.151900545662756
0.13875596453669348
0.1267976846135013
0.12194318527846638
0.12236988515739165
0.1255288542562798
0.12860524932658704
0.13225736687923595
0.14379602863773097
0.1529243747657679
0.15818909474638776
0.15770422478740126
0.14937342194823627
0.14493722555589217
0.1358055542779776
0.13204788973973308
0.12354996958745935
0.11976210178881995
0.12618519353864158
0.13497945259777788
0.13656656897515843
0.1440208952970507
0.14642253634235267
0.1495344622744959
0.15531708276762266
0.16588957942888752
0.16853398261224484
0.16846945698884722
0.17081194831134056
0.17801400170119924
0.17708369686298817
0.18064678143109525
0.1751317681352503
0.17486716774263864
0.173164160642275
0.16906553506083538
0.16450368846568764
0.16091881002885847
0.16158091042016454
0.1649651069121336
0.16362434889094282
0.15904243810006208
0.15071852626283952
0.14699926853944723
0.13874666760057403
0.13878075377131074
0.14082936082826839
0.15170703085633888
0.16120012982849372
0.16864112666616957
0.17276311930868812
0.17215232465767535
0.1666531975992715
0.16138930622768002
0.15728867998871476
0.15761327069772782
0.15646790815779305
0.16007560885701916
0.15814720323144538
0.1531309127222648
0.14774089255223663
0.14803342410487788
0.1470177876499519
0.14518534754546153
0.14750878205225013
0.15212568478548955
0.16094446271524804
0.16984022461647866
0.17421572530449558
0.1752450250290411
0.18004019475469196
0.1885646185623016
0.1877068629084274
0.18166943108425868
0.18032291385979668
0.1770296607837505
0.17100270228379544
0.1643287972279878
0.15659404162696988
0.1517467500180245
0.15385033984335197
0.1547706480950652
0.15506224938462493
0.16100737657253347
0.1694731398994319
0.17637798269577937
0.17976786048662174
0.1791176420967892
0.1795305984039837
0.1780841001486895
0.17539608218656624
0.17079443831178662
0.1668777197256342
0.16143369746483277
0.1571759955124849
0.1603230960283124
0.16332009352719268
0.16426034979459092
0.1712993236995194
0.17379794777665322
0.17989973898265416
0.1860507406948745
0.18710131941085256
0.18980566016807462
0.18877590327278812
0.18894426385264126
0.18753062066628295
0.18986007312517486
0.18721836251720003
0.18438672416018248
0.18430858402262273
0.18029787630020438
0.17771524918745274
0.17730108678302406
0.16955105017066266
0.16529933452716464
0.16423439465585105
0.16498487455367655
0.1585028285806685
0.1538917871009219
0.1464501373277774
0.13677524399642504
0.12442055680435066
0.11565158160371888
0.10256354187088505
0.09098141492327493
0.07681894865111773
0.06621083119205472
0.05388809996183923
0.04356831316593622
0.035888968949351514
0.030102395745589195
0.02719164010197354
0.026615667728568524
0.025106676365644093
0.023767158398006062
0.0214809074067512
0.01732236886971822
0.011223480491683507
0.005982129042763696
0.002213239839561875
0.0
0.0019025719578179496
0.003987536276154413
0.010891284843096719
0.014870190241760619
0.022136732305241408
0.026479698664040575
0.03584640593052287
0.040755212301514784
0.04686737121497589
0.05212003851983396
0.05887224501955321
0.06740322029120877
0.07525348643668939
0.0771057713281315
0.08272215028110332
0.08471353874806886
0.09126238213871614
0.09157012304278031
0.097530603146317
0.10196536115236929
0.10858370750283271
0.11691932484304214
0.12622411926258573
0.12977627293679866
0.13740189589365676
0.1400254357355374
0.14523039641434474
0.1463942604371391
0.15387903931839103
0.16009769132364055
0.16661234810147402
0.17034901967657057
0.17816085460861716
0.1789717709215179
0.1850291140170962
0.18360155974195927
0.18342755392455376
0.18352078876583744
0.18820184390554262
0.19081622409822283
0.1903140127486904
0.18639544741138084
0.19120043236842818
0.1928706061599779
0.19270571188548433
0.18880621731651995
0.19002531339637324
0.19339565600924685
0.195779184298432
0.19537941116816976
0.19284884875056146
0.1911580226922896
0.19360686797959434
0.19472715422865824
0.1895269228897463
0.18277064907997453
0.1837755277594463
0.1845407797323669
0.18741746026434936
0.18902892911820446
0.19272246069857046
0.19487921634141817
0.19539312463520747
0.19448752179025208
0.18915074309522412
0.18530988724803585
0.18486717185614798
0.183679576394421
0.1837802374735678
0.18587652193833717
0.1869525852359974
0.18859293722220055
0.18905183159247096
0.19055672870036452
0.192242987303394
0.19501225469788372
0.19345499251982415
0.19379953174328163
0.19346237398008445
0.1921423122149791
0.1865849585924867
0.1817403749599663
0.17768431972353707
0.17699316352630082
0.17669023597734007
0.17764109803414388
0.17862741610368763
0.18218179402159126
0.18522822385858692
0.1850875942537996
0.18405426060848218
0.1808978294292986
0.17621770999781158
0.1720501591689339
0.16751002286891312
0.1640976595333753
0.1589035473121059
0.15870714891140972
0.15934463009546176
0.15972039734994606
0.16118392122269062
0.1593133386260841
0.15869702803146152
0.15950952640913307
0.15833316957036486
0.15786693574095811
0.15443911049813788
0.1542058947142866
0.15435689523030546
0.15089490226561642
0.14799543752686717
0.1454003432000678
0.1476661934218296
0.14917631797525785
0.15213748866764684
0.15386236370393286
0.15455323119304032
0.15640098222002996
0.15968331374876357
0.15862477393354205
0.15790496973069998
0.15606700232968973
0.1547261837092096
0.1531043480625952
0.15233254622037334
0.14980277025816693
0.1471303180494268
0.14668861951819226
0.1475963032154863
0.14925778923057806
0.14906110932540814
0.14696638610534507
0.1490265793156975
0.14965277138084046
0.1507222507279199
0.15201652992718379
0.1487048248668308
0.14732038160015018
0.14396122644496084
0.14366022482764434
0.1415786640859581
0.13897464335561768
0.1396624831768905
0.1374023443727159
0.13859653649764342
0.13806900971666974
0.1369588411225845
0.13717515938630956
0.1371698689809693
0.14038823446215176
0.14332136552051786
0.14683055269025364
0.15168976963956052
0.157013837138801
0.15892077286068568
0.15728352128968
0.15427322825073922
0.1497469460594225
0.1440102512600531
0.13907153973193087
0.13506571646920354
0.13260401076136438
0.13502455859434054
0.13781825898740108
0.1360592526334315
0.13666600671113863
0.13444674762646772
0.13307310459554908
0.13350570867290784
0.13507383667202663
0.13603507837677434
0.13774307274791664
0.14186107656471142
0.14064121051900352
0.14043843469681008
0.14028440836290645
0.14151297978467026
0.1436877111894086
0.14844810411203763
0.1556435242796369
0.16222180012562323
0.17054484481488127
0.17915214897758625
0.1907310748985057
0.2081515434696032
0.23225513795451175
0.2645740432813954
0.29890030118018596
0.3315305296404553
0.3619407251118358
0.3852248031911059
0.401180268718656
0.4131491881099239
0.42277874767467205
0.42634967513626987
0.43203861258127113
0.44023051707327837
0.4462892139597522
0.4502265485137551
0.4537214611097967
0.45502343931858197
0.4501472694033646
0.44458239482874146
0.4363282388811956
0.4210979229735491
0.40833031824142146
0.3959811859051249
0.3838956615881689
0.37389161002698157
0.36729073651759203
0.36207658656628167
0.3570464064549577
0.352636752129896
0.3516935282260237
0.3470283136958174
0.34366217366256263
0.3379909396044517
0.330586118041649
0.3197408504994
0.310273762691593
0.299453917093757
0.28930556042043337
0.2785901862635921
0.2718128127510856
0.26159045946741577
0.2509515232242505
0.24181693470079618
0.23132460059010937
0.21889867416440442
0.2084207445779004
0.19900524543533712
0.18929818380648933
0.18121223383859666
0.17652110776981556
0.16871858219091923
0.1647582165630628
0.1630000740114163
0.1601450470006933
0.1544102783196326
0.15121713363891248
0.14895342109871565
0.1432046406410821
0.1389833196745884
0.13645550924761807
0.1342591013863678
0.13302060844722968
0.1336642545581538
0.13470890121477186
0.13432809987952907
0.13519260530352076
0.1364802272029411
0.13394727632814665
0.1332931089725729
0.13204039337209866
0.1330782734881616
0.13229014298211564
0.13466889690430356
0.13549066556498376
0.1346438915510946
0.13327132304102696
0.13287295871110205
0.13072947610433755
0.132544369943798
0.1318553296715638
0.13362363343573236
0.13507049356629616
0.1367394216419386
0.13710198358157583
0.13573718650686725
0.1350223891339942
0.13465173564608177
0.13437098624236798
0.13482694215984645
0.1347254457193366
0.1356381707692403
0.13655677876205988
0.13760418909810515
0.13806581826832806
0.13698496991823605
0.13816808898973756
0.1386341752555495
0.1392008360834363
0.1391178274270282
0.1413779419662761
0.14239689660666416
0.14238504336867366
0.14374378164601112
0.14324608829824564
0.14232487468595256
0.1427822018969597
0.14454664181585647
0.14468492742392802
0.14304228949298775
0.14257190619530094
0.1429126192961972
0.1429451471250449
0.1444676320246198
0.14364979324451804
0.14383780357396517
0.14389653221224635
0.14488586356795638
0.14414250956105443
0.14169435553410395
0.14192755610347618
0.14199228804226965
0.14066216977320678
0.14177562192327126
0.14108963292974025
0.14022381773865394
0.14106771132416132
0.143482559866217
0.14459875839735675
0.14512302489047801
0.1467266168067229
0.14723457039892285
0.14800457961007385
0.14910829684530158
0.14785873152441156
0.14546672159908608
0.14574298217637666
0.14617914906624047
0.1451004103813812
0.1458610287950563
0.14591296182616487
0.1466972920648209
0.1484960786509297
0.14838024179774428
0.1480488772890911
0.14801427008123588
0.14719702867776566
0.14703428382719433
0.14808199073278358
0.14814540112745767
0.14750659618089634
0.14551091073560096
0.14577065224997604
0.14717072774359644
0.14896122217085678
0.15002308132222422
0.14979295089900255
0.15178789083093544
0.15315824615129991
0.15280084121259505
0.1525418219975765
0.15127403867201564
0.1514269625772835
0.1528262205035477
0.15223315874548193
0.1495607249058728
0.14994542954993922
0.15216897639981647
0.15198054434875113
0.15291305709179887
0.15341082750201573
0.15310497900930797
0.1530476322760739
0.15324698630316327
0.15181392456166143
0.14955446489458254
0.14923941451216227
0.15057530199235927
0.15054176589052556
0.15176275242475107
0.15191252301464797
0.1534205281696046
0.15589009386491304
0.15689624413132006
0.15765779125108847
0.15719853260285835
0.15563380883795608
0.15556768880802851
0.15503957109225808
0.15508962044160696
0.15529730424727872
0.1565479765183092
0.156539659427548
0.15521697827436062
0.15475131512251938
0.15382902472399568
0.15202557500686054
0.15232206775166002
0.153468357071432
0.15526218363093675
0.15735045273830048
0.15841156210580062
0.15827102285969744
0.15743705342368583
0.15578278066647994
0.15433241405909215
0.15185164088739034
0.15102778741910142
0.1503804408125088
0.15049717950080002
0.1524974647707938
0.15269793629581138
0.1539089641514979
0.15334820907143587
0.1522184795766162
0.15156777967667076
0.15014590199436112
0.14932235898609164
0.14996653493693068
0.14930402171643495
0.15144313297276654
0.15082303191757612
0.15313974209786857
0.15271334726193198
0.15348147961575268
0.15361838322290014
0.15484286093705743
0.1550393937686916
0.15551000339653268
0.15473455313349083
0.1551899603132011
0.15540767964397284
0.15668971448447228
0.15415790359841675
0.15363921178015744
0.15227185925667347
0.15219137919825446
0.1494722215162734
0.149925463744403
0.1509711390630954
0.15247435406129442
0.15370085448372056
0.15447208249068659
0.15357746581126733
0.1556372918457413
0.1551382882416792
0.15456129553028744
0.15304105160150808
0.15389193591454348
0.15432755116454488
0.15484805561454296
0.15366333259367584
0.15344472517477106
0.15284666793554866
0.1547032381316532
0.1545609235006968
0.15312229463005816
0.15135189016900827
0.15123038033073546
0.15108670234513974
0.14990472294635168
0.14930390627690482
0.1483197196609467
0.14819057873156255
0.14997628396851106
0.15073957917089134
0.14999622004385277
0.15014365503865648
0.15183682180008645
0.1523845602951654
0.1512867484573982
0.1519252123963427
0.15136269312757672
0.1499008578999301
0.14824623906841133
0.14805402609637336
0.1478198685399746
0.14741675650241695
0.14757901523804282
0.1485924451106801
0.14907972356633786
0.1516923431409495
0.15081379990421248
0.1499926425781128
0.14953452266588083
0.1519837627606998
0.1513944091887412
0.1500011806691813
0.1497410994853264
0.15041174970200236
0.14884963769180481
0.14861522020002757
0.14734679871061
0.14875963519519006
0.15060317584639069
0.1536713018107233
0.15372485461963678
0.1528794804481833
0.15429474135529667
0.15301700084257383
0.1508324460210343
0.14954710787849365
0.14858942191286606
0.14830075761591135
0.14854617350212893
0.14876204868512732
0.14873406035102507
0.1479224069514401
0.1493199426280418
0.14891375536343926
0.14881949348909423
0.14938251068916625
0.15011461477506122
0.14994810066533296
0.15131616340155918
0.153615503919702
0.1552227189168124
0.15535191883074964
0.1550113212958473
0.15320465572913033
0.151868940612108
0.1512344038959116
0.15016584189891047
0.1490840056537417
0.15016009639992328
0.15081409573307666
0.150875334957153
0.15066136578347195
0.14974748530789284
0.14867749334814734
0.14811029942814055
0.14705359688188663
0.14734517384424395
0.1462819723546203
0.14719423419062239
0.14790285293030692
0.149086602783823
0.1509876404086778
0.15308205398283517
0.15314708190604706
0.1536198877788257
0.15337719373750808
0.15288342845423705
0.15016191419630637
0.15064263628602084
0.15085646792490295
0.14898550019513562
0.15038430207910194
0.15110346565433294
0.15148436839305832
0.15259873360532247
0.153271674507138
0.15271729109552226
0.15236850482641606
0.15222532702050995
0.15222425876427273
0.15024174619473593
0.15085039910042092
0.1485607177669175
0.14830254657585035
0.1488771726835556
0.15059024031610796
0.149218453609605
0.1502949922852192
0.15169233839256094
0.15283496035606142
0.1525479650386287
0.15261753544720602
0.1498444443285296
0.14987300496215483
0.14919438528231244
0.14670116466916308
0.144036630742605
0.1443881225286715
0.1452986777747773
0.14601018962977022
0.14786827169091876
0.14994017872041623
0.15132095302853443
0.15353483322310738
0.15247365719819164
0.15155500347783168
0.151854576930776
0.15162592752124993
0.15086908446639397
0.15105270727867615
0.1529944941649476
0.15242750270685093
0.1520230790903436
0.15161056735905806
0.15078909215482214
0.15055893077086407
0.1520156227996604
0.15305944215736153
0.15326807648408242
0.15348064618386723
0.15369716437922343
0.15391764123850304
0.15414208376085412
