0.1291599423401581
0.2435947483663151
0.3461866984848879
0.4369357759799909
0.5158419515881765
0.5829051957356672
0.6202168200149943
0.6486416123271511
0.6875178745241256
0.7409434035502336
0.8071097679197395
0.8775959958633687
0.9517383682096582
0.984923519593237
1.0
0.9963406236302207
0.9677864433143781
0.9265913312360116
0.8829206684946337
0.8330297549026984
0.8002907854409307
0.7718744281510285
0.7696458764297583
0.7557747942633666
0.7450571676184261
0.7197955927533018
0.6672459822437282
0.6101533748556867
0.5352226381412751
0.45791344765335323
0.3924646554349397
0.3475133297384131
0.32439595139770494
0.3068886154913285
0.29476596325036475
0.2782064942338298
0.25419603827277615
0.2363887095295033
0.20484003072729182
0.18335113562494113
0.1776360648561629
0.1878588223220655
0.2031442417592716
0.2173817043353744
0.23109137014423614
0.23558999267270694
0.24004386883440237
0.23800426701455699
0.22814620128430335
0.22464695482423327
0.22542945412046894
0.22684564289511427
0.2229793029301497
0.19998033580930313
0.16879562284084026
0.1238467585304398
0.07606538275677525
0.035354162839299305
0.008367439004695785
0.0
0.0016355421727772706
0.01728934976075113
0.03213174906124672
0.04591917235981942
0.06675911431180111
0.08541802448351724
0.09727175402626229
0.11642568518859803
0.13498609887304722
0.14548555682210973
0.1404718826146131
0.12791914513618097
0.10984650778908432
0.10379073028837199
0.10861399525084792
0.12683189327718616
0.14674555490186417
0.17690782414700462
0.21095986830493085
0.2347490664165423
0.24388935011910923
0.24297267127959016
0.23223431513624107
0.22268380564768014
0.2110369311284805
0.19903581689688588
0.19939778651188042
0.21246750423636562
0.22624133026761145
0.231166368307913
0.22481976934784748
0.2063099884323304
0.18542839949885606
0.1710012555232596
0.16037114223630108
0.1512977382943138
0.15615104080687797
0.1525761003307636
0.1386370961991793
0.1278609793312418
0.11028073411918199
0.09600447944960867
0.09374299705806238
0.09245172651552999
0.08809755117982669
0.08607000202158382
0.07797952648200447
0.07089332122966807
0.06715978571360395
0.07311564951354785
0.07958020001660693
0.09971602736573316
0.1263306397819372
0.1483834385505861
0.16049959028195845
0.17118696903814168
0.17577709355600038
0.1804732085235619
0.1783691659149457
0.18021660821861366
0.1789449776789071
0.18582346358144888
0.1967011235872295
0.20731131522609145
0.21459906439123758
0.22458790784495308
0.23545275751114586
0.24991079351468853
0.26097344052536
0.26763135319129905
0.25490414729967487
0.2434922962171501
0.238624323206108
0.23238885372997414
0.22363921729679614
0.214650648515925
0.21895670251463648
0.2283170060095321
0.2288223814433346
0.2259110652349825
0.22051546007345257
0.23702843338998467
0.2535428486950996
0.2550867637293474
0.2503404832818566
0.24368244038633494
0.23385268564990472
0.21015646455041656
0.18206843303846704
0.16896680056374214
0.17119892694634567
0.18865855493393635
0.20021143079584156
0.21177320420372245
0.2213287135101457
0.22052422087377538
0.2010516103060161
0.1797863925790299
0.16195295131292878
0.15797862601068724
0.1616741735599735
0.1749333759430017
0.19044970726680682
0.2065062471956028
0.21899312386458764
0.2216936763966405
0.2139594958630414
0.21046178869913804
0.19907753939907966
0.1925142124700296
0.18592800764144465
0.1849967179942091
0.17438230329628387
0.16354982797066842
0.16592822750390346
0.1833531917855267
0.19935720012541908
0.2189147679152616
0.23595513011395738
0.24910201722440045
0.2513346970826726
0.2490462090272966
0.23194899792157073
0.21269231238921446
0.19700531784660724
0.1869607610364539
0.18231758639637474
0.18031696791836885
0.18438030066082
0.18212829073999412
0.1780996301379213
0.18243783148580264
0.18673354000384706
0.19096180195401066
0.18445730706174662
0.1715303668311422
0.16817587305521053
0.15227528053823278
0.13829213339453902
0.12251160115499973
0.11395381413654072
0.11566879290566363
0.12706850373661505
0.1552491576848627
0.20955381568785325
0.27966755957075684
0.3553211037499927
0.4129317279692199
0.46054851451405704
0.4879690812281885
0.49110734116457677
0.46875421036673076
0.4278049244782834
0.38212345972461265
0.3460061034612122
0.30373088635358325
0.26251878443925364
0.22463132349502798
0.20396583937309917
0.19524873338503174
0.19141624280798464
0.19873926521818686
0.20794373188941925
0.21128995192782737
0.21187947989528955
0.1986571530580722
0.18657039971423775
0.1702358030920984
0.16316682109000785
0.16117040846800582
0.1552006818562532
0.15903903973165934
0.16516489977938048
0.16894383159045234
0.17426586758028142
0.17487085736749497
0.17735839776697157
0.17509082698027886
0.17083477925270535
0.16729295495446198
0.15875929382623907
0.15268280117630714
0.14401199610381696
0.14120667824703864
0.14308795656895199
0.15166451008967888
0.16225639784592527
0.1701258572809785
0.17431025324165839
0.18822892571758512
0.19359938168001684
0.1941504710742918
0.18894997573143188
0.18943220450380271
0.19281083709195992
0.20404765777151418
0.21114381499291204
0.21513066422646912
0.21603485760676222
0.21997494770458592
0.21469620543133766
0.2082655460549024
0.19417607506766846
0.18858373331656964
0.18922857851276087
0.1973395915235688
0.19625656437871564
0.18852364242764852
0.17912050776892816
0.17011329232041666
0.15775627296658626
0.1507189885689854
0.14444286979551313
0.14489402667808007
0.14886567863181593
0.15603112222771295
0.1617588307788338
0.16952770466837747
0.17501678223624934
0.1815436260292966
0.183475122119098
0.18715805117318285
0.18598201588652924
0.17795198914443652
0.16950300808202304
0.16046365512654598
0.1546659664494665
0.15116829843138363
0.14680962503059017
0.15359333733001335
0.16110049727981482
0.17394871472858375
0.18494620059167116
0.19436919651824727
0.20108131019683043
0.2097062247351284
0.2139867413135074
0.21537721272853147
0.21563335384375598
0.21311628087356257
0.21028185235429805
0.20857208831041163
0.1993792522853825
0.18957659089483353
0.17954656397581117
0.1714373961771439
0.1672450848621163
0.166466139041608
0.17011929889276395
0.17599924265873598
0.1889546382520542
0.19858755840403175
0.20361818233120166
0.20829233809132025
0.21024937386735867
0.20578295904811886
0.2038790304752007
0.2017201709178106
0.1977371579428406
0.19576159257586934
0.19324693522011369
0.1978820583753589
0.20030690930727896
0.20814029684586957
0.21147411943408478
0.21603957027219772
0.22227046773804376
0.2279458317335538
0.23141394818149125
0.23117831933096114
0.23328044650267674
0.24072037471041083
0.24172643425497972
0.24546356185235418
0.24271425865870938
0.242978227023174
0.24007315817710811
0.23605800166126437
0.22568497306131652
0.2129978853604208
0.20408028284498
0.19712750861820694
0.19455448128921876
0.19338438047446707
0.1903998547214661
0.1881679845417152
0.18323391737443848
0.17470012324558948
0.1559698576315364
0.14170575382344583
0.12405372894164238
0.10876232505558092
0.09448352731282522
0.07849634081012324
0.060713297977696826
0.04878296882236414
0.03749429039907973
0.03014251231036736
0.023118214019895056
0.02039279409638352
0.021042330791543995
0.019232362527343425
0.01714765639203058
0.014184420812682303
0.01051840027914011
0.011665460878547444
0.009450751736566732
0.00888204322702434
0.006263195071385354
0.006249152611148739
0.010608893171417619
0.012349642121334267
0.016099445493236348
0.024449776109301484
0.03179356779949878
0.04197082559774963
0.047621174473884996
0.05118140455906257
0.05467743254356016
0.06023272087290821
0.06596740327463665
0.07019352805639129
0.07463912242597207
0.08112974033228855
0.08645551929068503
0.0934712300024196
0.10090041586672487
0.10777114618098378
0.11889905891648886
0.12970469344246438
0.14073853910368314
0.14706199102471318
0.15512271236188938
0.16176316146902944
0.16439817231082265
0.16669893157830354
0.17349961514827075
0.17755099408612007
0.18272520781143178
0.18812678781161976
0.19633701672845938
0.2005754873035099
0.2081514745318938
0.2099859661815251
0.21002101979364984
0.21358083761136465
0.21702673345122825
0.21703965025801822
0.2160666737899834
0.22045478620118578
0.22291789294093436
0.22395450799237565
0.22608765677308246
0.2260071558710064
0.22706402436494597
0.22774420511072488
0.2273068808948404
0.22635378558074543
0.22566926991802494
0.2274289480516116
0.22453804244689915
0.2256049864453151
0.22506930640921421
0.22652208977176108
0.2249933890957159
0.2242233723355102
0.22461544479741616
0.22389993938282668
0.22592039215484866
0.22651339477615642
0.22842943069586563
0.2337674222557599
0.23544418680557108
0.2357960075987567
0.2361118215400278
0.23648099654546226
0.23648137648031384
0.23652492675096962
0.23377817446123403
0.23104895105483841
0.22820714088264477
0.2250312418624097
0.21918076563679578
0.21593238379258248
0.21500051910953377
0.21186168321571766
0.21143013625723897
0.21249467343873682
0.21210567448082587
0.21245555430624985
0.21253697685555098
0.21341279363449484
0.21260208218231333
0.21449520065234973
0.2143247717147806
0.20931140363530468
0.2089935012890041
0.20722748583983597
0.20741408822093732
0.20220406280598915
0.2002253931021593
0.20037902526496168
0.1970326976880781
0.19623262456101903
0.19404225412536097
0.19070199544785257
0.1903856647476737
0.19083109999514564
0.19287841569243314
0.18773812238701518
0.1873625343627078
0.18631711239569548
0.1841053987010396
0.18404257233614568
0.1821158174564496
0.17820920184231642
0.17656643484904988
0.17757086264373265
0.1754164673901079
0.17291605959221099
0.17084266903380246
0.16870588141674128
0.16986955691697955
0.17366975736383838
0.1775215028494728
0.17925081483798028
0.18217893989968154
0.18536489329304626
0.18452792369626791
0.18528476841155853
0.18007882994381805
0.17772958408832526
0.17624871207117482
0.17757522948102394
0.17492276333137868
0.17247103810545197
0.17038415153624253
0.1715722952657555
0.17024463378186702
0.1705474117128669
0.16883004762238352
0.17091019629869397
0.17269279676314434
0.17419279604605847
0.17190880606144526
0.17156715995259628
0.16818991563920085
0.16638001081211623
0.16281569234556748
0.1591589761151085
0.15917864753233107
0.15747667557111864
0.15500271794363388
0.15489845176682213
0.1545211232074084
0.15401062325737438
0.1533211516579954
0.15411181939744203
0.15552704496514755
0.15890935851466448
0.16539428680964186
0.1679004080906377
0.16859838618092243
0.1699146251964414
0.16884424064990722
0.16572211180157412
0.16328519285219048
0.15764877324036353
0.15359265169798306
0.15207586209231147
0.15220947955467096
0.14962175361224203
0.14720805268667275
0.14832652619706213
0.15044434474060872
0.15211861742229846
0.1546464803598348
0.15637502236187703
0.1588601999848157
0.15942316131419138
0.16012527513623095
0.15598611799161496
0.15360331526677076
0.15339123777374
0.15447647594474107
0.1559978191883918
0.16226963800940208
0.16848211190201207
0.17487008241918697
0.18147355257515327
0.19233597378155806
0.20202342511703608
0.21796475942029195
0.23775523667362505
0.2609994103969316
0.28531984055214327
0.31109424321876594
0.334191445176837
0.35448977236992535
0.37093593084911897
0.38155110559468197
0.38769623594268576
0.3931891274105188
0.39533550961773617
0.39784358367593814
0.39780596422267084
0.3993844717543635
0.4002379850249748
0.40004689454964387
0.39769394413708326
0.3917756980822193
0.38616779131262063
0.37753660471231965
0.3699221688137928
0.3631662172279619
0.3569460784740564
0.3530854102284056
0.34854892352575256
0.34669465993992205
0.3494710704882641
0.3492609395820929
0.35111803181621337
0.34968408984306787
0.34788478810219076
0.34358896267222866
0.3368757070424836
0.329124080272438
0.3212595014479886
0.31229240957867405
0.3067893317386354
0.29646918866080396
0.29005714281727457
0.28031626459991654
0.26855533013787203
0.25622918355611474
0.24622044566901388
0.23593166360816448
0.22749943704986528
0.21749201409384306
0.21000955610802088
0.202207797900583
0.1977423354276047
0.18991152661566493
0.18363740767725137
0.1776800376376196
0.17486380416685682
0.17029846155449052
0.1672924613476394
0.1644932100490904
0.16172936714501387
0.15955113630471662
0.15824995599944644
0.1566650782021382
0.15648232976160564
0.15454992813235766
0.1547335606843894
0.1535070159343917
0.1502880831147164
0.14984671148646952
0.14893379950466865
0.14875429725860997
0.15023309129801143
0.15302251488048632
0.15503654600280284
0.15551960783668273
0.1569980576549686
0.15682879968791635
0.15394577962507128
0.15357278973791053
0.15198601130222006
0.15287792105945194
0.153931278691904
0.15351386630069555
0.15480066946289017
0.15499957743549433
0.1554985258674049
0.15579182355003415
0.15493539789244892
0.15527624299246598
0.15499047931656587
0.15692442931830525
0.15591144883762914
0.15518149797051825
0.15652757619035806
0.1581350319072848
0.15915736593191532
0.160084608033534
0.1622014042376592
0.16260629955329403
0.16332681210534672
0.16413453628951932
0.16342803186956495
0.16193487150623262
0.16084539505676598
0.16232113382283916
0.16179844799400891
0.16112531675887917
0.16274339937883545
0.1639127186791477
0.16504126818759662
0.16539233978817913
0.16440581287197137
0.16394800079584101
0.16463395911294612
0.1666555757891118
0.16622261122166698
0.16629132972023372
0.1683718913278533
0.1687227921969524
0.16739287201718284
0.16527428834568064
0.16468400743381711
0.16610320291444386
0.16639321007158617
0.16682068841428166
0.16639028104600365
0.16665179706849567
0.16739840748981416
0.1671689788246611
0.16779343268240912
0.16722307179355803
0.1678023436364189
0.16883125541100424
0.16922926514989162
0.16855212620511018
0.16855977738804928
0.16914287269664005
0.16972931611941044
0.1711261518787795
0.17153438187981285
0.17073203538112988
0.1696509903655165
0.16918659531061275
0.17013678131374504
0.16857450213558628
0.16883534690354918
0.16921777108412728
0.16906752589115126
0.17016592603022523
0.17040348764358948
0.1723256917526041
0.17218819473946534
0.1724421062211721
0.17429335914369484
0.17334914939760668
0.17285214788464767
0.172416045173666
0.17248566779455782
0.17344191106521725
0.17421042644871088
0.17653602509358984
0.1758919564027078
0.17672041062708607
0.17709154782655065
0.1772096837641792
0.17693510915481817
0.1768131128514391
0.17741942587455858
0.177990220093565
0.17916819939920808
0.17987899585325556
0.1796662598616535
0.1804117723879605
0.17895265962694604
0.1784828486928489
0.17819890262927512
0.17638709078718978
0.17544368327253393
0.17665068058941363
0.1775423673661093
0.17807640652969975
0.179285148113201
0.1809557596198872
0.1816241359274574
0.18111396696559356
0.1813161156501656
0.18060510140932973
0.1798183951565832
0.1795986172024333
0.179906426411945
0.17893974150914904
0.1789516802198758
0.17908697492429798
0.1793945546403356
0.1777648305590819
0.17771434836602468
0.17810773461247192
0.17793443511970833
0.17775482721917646
0.17893910801357593
0.17844606684526662
0.17917725055824676
0.17750081754127736
0.17756044093018114
0.1761718055095843
0.17604159932545269
0.175921771383829
0.17730427215027245
0.17804902474940837
0.1787255080334566
0.1785240626557407
0.179591183844238
0.17744560041723473
0.17777144692993252
0.17651062265924236
0.17618103065369506
0.17613130207719987
0.17761284631230448
0.1781567562105331
0.17864301404962443
0.1781218855500161
0.17894990256782972
0.17760476506953837
0.17793782090536803
0.1781864534948089
0.17887137868510322
0.17945992988599674
0.18018663708071772
0.17974857937480052
0.17914747720197327
0.17837733372185036
0.1777457256943413
0.17740191485966642
0.17768696004501003
0.17914285084914267
0.17917579274091522
0.17777976718440033
0.17752130936795923
0.17597710164239222
0.17563147306959181
0.17624701516114102
0.17648118392127068
0.177634014284805
0.17899620388371262
0.18007764757673822
0.1801325022636353
0.17893856440855235
0.17797851567160364
0.17661000895751827
0.17542065067338947
0.17533293448150775
0.1750347286704962
0.17571948122484252
0.17594414805030265
0.1769813312513991
0.17814605177385134
0.17774257159058746
0.17633108486658383
0.17470316067628539
0.17331547714494014
0.1726764679189922
0.1720859222227944
0.17246023290898146
0.17237765955673787
0.1736131339163418
0.17452571970788217
0.17552035046477957
0.17494695764835677
0.17369454115342867
0.17369330163779867
0.1730526588808732
0.17263421424906011
0.17299208145113493
0.1739831976565335
0.1743745893927899
0.17462295225793972
0.17520629322179807
0.17441670583660132
0.17338370826968968
0.17338295237168197
0.17235642104740043
0.17187812446690887
0.17299843005337795
0.17374761589122587
0.17406787479398292
0.17518006844823575
0.17595474550271445
0.17686078905609512
0.17594978944341358
0.17595569524169663
0.17468349296266678
0.1734118825452882
0.17251536290896813
0.1712815663607953
0.17215826395230427
0.17284693617637642
0.17373426879355844
0.1764003728003242
0.176382131494818
0.17789005773673294
0.1765554091648858
0.1760620041793504
0.1752225430178419
0.17424408149848314
0.17404912003021497
0.17304849008356457
0.1733459386839171
0.17378461098815387
0.1727753418500427
0.17290290466935415
0.17300131517866194
0.17304930312841296
0.17349748925951355
0.17440985101982762
0.17507098837173915
0.17531654650443196
0.1772167947232435
0.17775472962065864
0.1780598828918328
0.17778522600082158
0.17752446130697813
0.1759258859710186
0.1759365543327433
0.17404015707766904
0.17223083381166823
0.17120274556765178
0.1721615229558289
0.17274470734467193
0.1736008012650191
0.17428230795690136
0.17565997749896048
0.17723760330764976
0.17832413310937542
0.17752828906271778
0.1768076820457072
0.17562347296945244
0.17496817772794626
0.17413855387278218
0.17374960443306295
0.17402359916499524
0.17412029645735136
0.17503525721611232
0.17496010655820807
0.17508525011101173
0.17408637940319402
0.17378409991105134
0.17352388170118477
0.17251115107465467
0.17321802774011133
0.17456376309904226
0.17562896566784714
0.1775918684398645
0.17807783299751284
0.17865173321326852
0.17813234773975573
0.17780749825441095
0.17682475624188404
0.1761187807780361
0.17576265005617242
0.17422197241620532
0.17354871438015268
0.17368808509032393
0.173653693770325
0.17301019558908623
0.17316109304866847
0.17498015635775396
0.17538946412911083
0.1768154559520862
0.1767160320887548
0.17579447180011887
0.17586832009391157
0.17664227413808434
0.17520889377367518
0.174271653832506
0.17402844814306995
0.17443970395833228
0.17379749180498705
0.17452215338893193
0.17363013666010152
0.173983229136986
0.17453110409447486
0.17562997024700153
0.17588852344362435
0.1760496163211386
0.17585143252554933
0.17575977726147798
0.17645965473268066
0.17652017689000088
0.17462614285859326
0.17444915510871079
0.17423865484390363
0.1737602183586599
0.17390586794945814
0.17307422414192855
0.17307673397589235
0.17339036357045204
0.1740419078197515
0.17503137169681024
0.17635876074408371
0.17802408008864762
