0.14693963915412528
0.2664048400210831
0.3724391168584869
0.4650424314362598
0.5442147420312904
0.6099560068583612
0.6463553627867926
0.6692292869368999
0.6987041635288005
0.7503369951007077
0.8081849128465347
0.8699046023217573
0.9332584821163933
0.9836439210783939
1.0
0.9957690607286144
0.9752575393974313
0.9364736124605381
0.8882502329892861
0.8461358305731441
0.8067211874734345
0.7814082837358908
0.776429611312091
0.7684267007302111
0.7508097702666143
0.7249675958310995
0.6792209217941813
0.6090431894305535
0.5283368221703479
0.4416940211048802
0.37717686334026357
0.3288671146297532
0.3083982216556843
0.295752285239702
0.28896599981636767
0.28030070089663706
0.25995730326387445
0.23605412276380508
0.21266011912674543
0.1910036929180314
0.18592990924701638
0.19294038831960514
0.2111230906909666
0.2276438460751919
0.24239356349562735
0.246455827020093
0.2411216853377293
0.23644367877268188
0.22993778004414445
0.22582109441175502
0.2263531863755755
0.2228487751199317
0.2121206497646821
0.18928411070226536
0.1554097648495123
0.10972787960503019
0.06476824405600479
0.02649955008707262
0.005082772728249213
0.0
0.007352891363209868
0.011684089697830661
0.032374012566082966
0.051436615888434276
0.06713745236359231
0.09121030171204404
0.1136337662240512
0.12987036249993128
0.1491479675077145
0.1536325627569072
0.14227884784815165
0.12325460694514533
0.10626507335512837
0.09472584635937337
0.09624190922887095
0.11380608005434406
0.14034947247654117
0.1763874642852224
0.21989787603995734
0.24195089942821815
0.2488772220663671
0.24416411093317525
0.2269208508254682
0.21695176421080725
0.20278700823529996
0.19320314771052755
0.19975721413901074
0.2195207962533737
0.23846634838138092
0.23614800196301963
0.22475133197464045
0.20547419531689096
0.18702716317163293
0.17404005419190793
0.16214107988814824
0.15872625468081233
0.15834361427277716
0.1525435371718939
0.1378372991598342
0.11458831105401349
0.10018875564434747
0.09018128839065635
0.08974463492454357
0.09119818354888658
0.08993623974479957
0.08203902966701261
0.070916736684703
0.06052259152271745
0.05939645754438741
0.06534212408714797
0.08365911192303256
0.10785639028237155
0.1402845885174118
0.16639140681200007
0.18048901001731782
0.17920712635431674
0.18067071971798812
0.17367383548195275
0.1734466306410645
0.16923179918529116
0.17301892830043147
0.17920592106830252
0.19222103355201708
0.20494475664439396
0.21502983996721556
0.22105202553987552
0.23517799892770497
0.24632170777773002
0.26275762094479654
0.26991323716109283
0.268375819802784
0.26124729830856314
0.2542957232693295
0.2484453629150039
0.24334876641058986
0.2321772709178218
0.2269312066141907
0.232415289559969
0.23952600701628202
0.23607353204410306
0.23130035185490175
0.23613491155980484
0.2451369876715887
0.2488627342409358
0.24701843819581348
0.23241481508115008
0.21120202662750406
0.1981517107038486
0.18011623443235467
0.16945246558840288
0.17823150287624548
0.1956918313422827
0.2172444568900796
0.23357952884206337
0.2423712522207803
0.24182815898842197
0.22346039098238088
0.19882444268388436
0.1737185993082947
0.1644401281147852
0.16806574752362255
0.1796575445067056
0.19409758199959984
0.2091484300593235
0.21695735940111197
0.2248771617621817
0.21951405329332663
0.2109583678460075
0.2041994928564877
0.20221785400280884
0.1977234566600121
0.1877270430223909
0.17548901346897494
0.1655928484859844
0.16345360507587653
0.17478640380315685
0.189966514767693
0.21440901900765338
0.23414554658841497
0.25408246576717125
0.255679076022798
0.2501627475868302
0.23721016568183964
0.22263046801694822
0.2127471130681963
0.20176993808837776
0.19254741925097837
0.1945977614836251
0.19465225555199905
0.19566219284775693
0.1942548677814542
0.19483321983400934
0.19634491736700582
0.1987034956680547
0.19563565857037724
0.18365429584574175
0.1704799795103421
0.1626330611337135
0.15406023960270487
0.144120615425021
0.13605114147336095
0.13230294881048754
0.14416020325723142
0.1745656351542606
0.2292653608679101
0.3002487730830944
0.3750615691957127
0.43958625086664166
0.49233041265091765
0.5214769609820247
0.5261278813295132
0.5012244213665736
0.4597681741219081
0.41117724003646827
0.3652812210167786
0.3209334862957281
0.27767323654975196
0.23970904757170225
0.21437855890562865
0.20508436877466352
0.20248963629280142
0.2036129046931498
0.20443536434631543
0.20303283562334445
0.1978268865634639
0.19094543012751647
0.18420201626977808
0.17328337942007538
0.163360784806842
0.16007129722480604
0.1535292415235685
0.15388108199592748
0.15519902644801656
0.16342026581233912
0.1656701045651338
0.1727066217530377
0.17261817256613157
0.17027323380012338
0.16573943429991522
0.15867290705565978
0.1486326351813135
0.1428389775905782
0.14158252027138257
0.14239910812198792
0.14171871001709618
0.15154837625150985
0.15693040989111637
0.16906606267132207
0.17634113107542754
0.17940073518351854
0.1839451768263131
0.18648169572636156
0.1872496140502271
0.18955450154647097
0.19275836036203292
0.20406171199634945
0.21301335987888892
0.2207441336219442
0.224961362624275
0.22270078563133808
0.21914239605618793
0.21023021915414442
0.19916952618503644
0.19320341384584325
0.1910905943674058
0.1905009984524378
0.18664410555034947
0.17784707642152262
0.16670067442278677
0.15389532408066356
0.14259332606016847
0.1334508443897056
0.12674686670617674
0.1309333009530871
0.13335550446984618
0.13952210036091525
0.14651168806033346
0.15346041112773187
0.15747836900187293
0.164122895768338
0.16924105069660453
0.17369222224727116
0.17042583155216368
0.1714718282803747
0.16475589340825778
0.16296238838201776
0.1584635126095423
0.15438195621010545
0.15125139626078782
0.15593522522347333
0.15927687669374746
0.16679955017785295
0.17210149014183312
0.18774145518066487
0.196761545217263
0.20508790636481222
0.2105480853051215
0.21050951858194167
0.21306436790072736
0.21223655238979444
0.20571060423085846
0.19986113269076985
0.193484231195032
0.1882707686689443
0.17773586127065655
0.17407506829094632
0.17284385375601605
0.1774247857933807
0.18651103268856215
0.19006564181530541
0.19510038750593403
0.19785083356365749
0.19823031990972723
0.20058723704096865
0.2018629257923408
0.20547985202166477
0.20567025506958383
0.20930001415013383
0.2083837744878402
0.1986196590695556
0.19548640960436303
0.1953850768676888
0.1972685734404531
0.20765399117519032
0.21236330264095898
0.2202482473939672
0.22765831265652323
0.2337777314718743
0.2321182535747578
0.23135712134264538
0.233115987901661
0.23514433934955803
0.2372748351364642
0.2389314361258298
0.23260253143499346
0.23092859769804006
0.22858687347204523
0.22374659359347815
0.212902360599291
0.20889734467801135
0.202447899391975
0.19933873238037508
0.19641293971556065
0.19586311446697166
0.1927434208721446
0.18734035991437537
0.1838096735249887
0.1778627378521567
0.1638763989130687
0.15056432880494192
0.133683628489615
0.11578405736438255
0.09618913071691342
0.08127224553294529
0.06259282314580636
0.05099665662091047
0.04401586300423748
0.03624787820183695
0.03258352387687293
0.031152562511507553
0.0293276228435153
0.027767775456064563
0.027409429592675644
0.02435685726418078
0.019492469151929065
0.0205057488637707
0.017137439468169608
0.015551351655288426
0.019299563238497495
0.023944324226837368
0.026991243024381117
0.028323644521874133
0.03580070258122924
0.037515376559348564
0.04297884960913653
0.05168923921043746
0.06061006066289434
0.07059992993498818
0.07861688668238999
0.08552548291553717
0.0877438652528205
0.08889154770762801
0.0939655196210057
0.0961207575465759
0.09948855208892005
0.1067400147661007
0.11563117629596809
0.12287509452588502
0.1314517131687229
0.1427207417081907
0.15208087710159188
0.15817713945742734
0.16420680853027517
0.16759187203467193
0.16647159947044435
0.1711245641228245
0.17321461937736207
0.1757419193482119
0.18369268736204813
0.19062254865294315
0.19376205815742495
0.19840032813102806
0.20473983698834639
0.2081993356334624
0.2113731048487338
0.21877287677501212
0.22325399641693042
0.22833080046678803
0.2296476134828676
0.22869831928236628
0.22490495523914023
0.22839712197779305
0.2284978269218872
0.2252090644939585
0.2236222534510985
0.2244965689337598
0.22570777215313995
0.2291437180868515
0.22776491714836508
0.22916871081843435
0.22693562040304557
0.22903724039133988
0.22704506602840702
0.2245069519512916
0.222164492524968
0.22136791521969262
0.2218414006508147
0.22412923131566315
0.22211446457400186
0.22025341530543566
0.21952173699932484
0.21991486676987296
0.21946785219734338
0.22117657826751191
0.22211583815918243
0.225124260877857
0.22645926424094812
0.22899939336935765
0.22536989878623648
0.2223384888205047
0.22255209411812707
0.22178495368624965
0.22033492124177997
0.2184397959480796
0.21656308864507384
0.21592554635601188
0.21493023435081252
0.21564368597747846
0.21269393494381225
0.21088506669018464
0.20946300250154107
0.21120854216100168
0.21038665699471668
0.2109068513316504
0.21316940224509243
0.2126136730783249
0.21358056946499382
0.21402411457880846
0.21199831279112616
0.2071459846946826
0.20179896406641462
0.2006151809291276
0.196247554011771
0.1944884505657018
0.19262585267144286
0.18879073074049002
0.18686648732238242
0.1869958489648336
0.18588377896836655
0.18568190980951266
0.18475547843976386
0.18465313381610093
0.18391726882252676
0.1842193940242844
0.1841133164097921
0.18072686764410634
0.17851202719457246
0.17741711406779526
0.17590732461802355
0.17445678142516616
0.17366248607263432
0.17290694058699027
0.1780023608614046
0.1810585361020162
0.18291251532636119
0.1812779315102241
0.18290715637058805
0.1815902578535414
0.18236214812911536
0.18105895978628042
0.17832624331918695
0.17626980310961293
0.17601812504768513
0.17428176848023264
0.17430387966013022
0.1719320094114628
0.17237822790695376
0.17315610137611068
0.17496833656854405
0.17725741957935406
0.17653960433768687
0.17655528164463608
0.17597537138480387
0.178168768782572
0.17656546381926866
0.17472009676785102
0.16996048887827472
0.1666528535747581
0.16135059632090495
0.16020883447412435
0.15826930076048978
0.15624046276230077
0.15447645718714081
0.15495744305674275
0.15606582003473482
0.15939029160080065
0.16084714669053668
0.16403119521976467
0.1661532730345973
0.17021954124945235
0.17317795366102656
0.17280233053395427
0.171333001219282
0.17068452617945506
0.16858215621780823
0.16514871541208953
0.16244166397933943
0.15919788412168948
0.15510586885572983
0.15375481962300636
0.15416457701964903
0.156415191824375
0.1594036696666941
0.1630500742537831
0.16441112095109078
0.1671018438109312
0.16692447446419528
0.16667392191891955
0.16519011718803747
0.16456214813616035
0.1634356456396512
0.16153072820318487
0.15858753038913426
0.15745532391911943
0.1559367887081009
0.15821575467537685
0.1604660799670669
0.1671316783472238
0.17505798881870177
0.18451678105320285
0.1966285475652825
0.2116479045694848
0.2321841511487383
0.2540339150300515
0.2794091947485632
0.3083901172379574
0.3343812782873512
0.3576684581453231
0.3792518342055346
0.39649378980833766
0.407256794473621
0.41856494108651154
0.4235341412651545
0.42437620478892774
0.42535187581834716
0.4248922930103519
0.4246120163153448
0.4230393437869513
0.423837769425615
0.42030894946934677
0.4175080525231083
0.41484353119211903
0.4073059113468355
0.401004832841986
0.3928225842820425
0.3867570007465392
0.38437691376944855
0.382387433479583
0.38275460087609636
0.3833780194145887
0.38584080070783544
0.38801682511308067
0.3889887568719761
0.3865390279450967
0.38110768275336493
0.3739434787161041
0.3638861723445115
0.35528220776734915
0.34542248753761884
0.33709316758940694
0.32697359667860504
0.3183414226501632
0.3076502062234471
0.2963229341426978
0.28430515183464794
0.2726196908091216
0.2582714688207467
0.24737838319072294
0.23417044290762284
0.22455966613634176
0.21420191268390643
0.20603714482688415
0.1986616603598971
0.1940837612145207
0.18933655903396276
0.1857167607370382
0.18186630354328295
0.17779307150855106
0.17308772599962144
0.16900979393474141
0.1658100548090643
0.1631277580526931
0.16085649404780594
0.16063588988950586
0.15993341937055114
0.1595628792525165
0.15906928589265237
0.15758045518972574
0.1586421461704326
0.15734435111004938
0.15823018440253844
0.15744700456771363
0.15785194905700337
0.1593759406453282
0.16024961869700577
0.16135553795594837
0.15985560910417312
0.15993014478639145
0.16097862598422477
0.15996297459908515
0.15971473973968695
0.15865041789085055
0.15690111151537306
0.15738414871120832
0.15815887232799894
0.1587763368557161
0.1581903658055689
0.15770093016238051
0.15881662708289218
0.16009983524633825
0.16156177879648087
0.16234497224784364
0.16238351343194937
0.16408052301948925
0.16530404535590873
0.16477371622852038
0.16525847152700876
0.1641148700064607
0.16462910399490854
0.1649293201566259
0.16542693849049855
0.16582755056724546
0.16643972254112357
0.16551452298889863
0.1650665544975302
0.1651415095260951
0.16545931936287098
0.16495978776691628
0.16464309433538818
0.16552943320070343
0.16627001829612106
0.1667391479954037
0.1673340802257355
0.1674861965670602
0.1682414592309159
0.16817968730526162
0.16788106229765126
0.168765922466516
0.16842250605232578
0.16989716918623976
0.16825200259823048
0.16771072763890177
0.16815630364508116
0.1681628946866865
0.16825930494488722
0.1675512368993947
0.16768770885231044
0.1678715994642982
0.167234354421161
0.16804798438067478
0.16744359711947426
0.16816473209871727
0.16862845582048577
0.16986373429359183
0.17078773781151066
0.17078915494229704
0.17002538716359922
0.16983405040107538
0.16974958962631462
0.16996371533793514
0.1707567313789801
0.1716030904041129
0.17162861702187487
0.17326829841599728
0.172956061981229
0.17259823676160987
0.17162357262396943
0.1721755899053177
0.17177127860773725
0.1724941565539723
0.17295570151578982
0.17418782393189833
0.17390470608699907
0.1753015039478344
0.1752179628758209
0.17447739242441232
0.17433746564120983
0.17450415334573985
0.17522352376295589
0.17694168205696015
0.1767555688336665
0.17822041179698211
0.17840457332670745
0.1794144497866827
0.1795557611840612
0.17891168215017295
0.178179778420206
0.17764039597395737
0.17905985638501892
0.17897783848853963
0.17826335717303
0.1796829036674316
0.1801762194306133
0.18092379421878457
0.18037705826464875
0.1808967015146379
0.18008828063849958
0.17827782982041662
0.177591698396136
0.1772214272941022
0.17771308174048886
0.17891831687702445
0.18028014223026256
0.18105581718092933
0.18079407709141201
0.181941308954708
0.1817915527812222
0.17894764616575703
0.1787221821463597
0.1795922530083871
0.17904620155369236
0.17972185153864534
0.1810107337442035
0.18124704488462956
0.18085391851778487
0.1813403898072732
0.1811206545738738
0.1802006141275303
0.17978066219347483
0.18005815329684058
0.18003022535854546
0.18054862682304715
0.18024470838189913
0.17947012123284042
0.17847077929853047
0.17927290872008378
0.17753588989132643
0.1764432912806307
0.174957931374773
0.17526891457692173
0.17491595043659358
0.17596240849881797
0.17565080452184056
0.176238829297269
0.17790666269725153
0.17947710078397025
0.17908710180247658
0.178820034592629
0.17827025211750747
0.17842092221180691
0.17844346059624697
0.18063554920579405
0.18024218835556016
0.18106417658110857
0.18259011496046537
0.1830340878039907
0.1825848087157205
0.1820253754051046
0.1806157517919481
0.17935906203356042
0.17878691349726702
0.17935089600118254
0.17886498600666687
0.17922388022562596
0.17926744509662915
0.1792700839218897
0.17848315818331154
0.1795414831955803
0.17863015667590468
0.17746954004003085
0.17733991403143476
0.1783756404283991
0.1786964366999486
0.17864812695598176
0.17827933704736176
0.17916467504735561
0.17912379519034322
0.17957412936687703
0.17730085636763973
0.17704770549510554
0.17698581069776997
0.1770894817472926
0.1765185972827975
0.17569325830440477
0.1769196139996589
0.1780858875865887
0.17801189511124502
0.17678624693856476
0.1747604551730099
0.17533514322012506
0.1750582920005765
0.17421568872951276
0.1738761175242215
0.17365953591950947
0.17512910525996764
0.17571297025443477
0.17641133843558623
0.17571825891743809
0.1754883762925516
0.17677905117970438
0.1776042478811214
0.17726958751423288
0.17753255292126996
0.1773901361642045
0.17746818802143757
0.17635505371550858
0.17584250216917563
0.1758219649589644
0.1760648525149332
0.1765911909372126
0.17632652645065572
0.1762510547206596
0.17673057640675435
0.17543041304271428
0.17563116684357374
0.1753839418351515
0.17588039928040458
0.17698339397900117
0.17614963988068585
0.17634825598000034
0.1762361678823057
0.17516185202452772
0.17442555925242811
0.1734729266464578
0.1741985985256567
0.1746308218199415
0.17548975113834064
0.17661252871124933
0.1759073837881895
0.17781798958284817
0.17702914605719913
0.1762213548748959
0.17581185818578465
0.17507198041621455
0.17487904522419928
0.1746129687896883
0.17552257121446282
0.17553036984669076
0.1742849028365992
0.17504677785294323
0.17434969713479098
0.17492560579303218
0.1752199761875132
0.17576436592179995
0.17651594578909274
0.17767764466040975
0.17956955450546627
0.1797798526037286
0.17898011656381077
0.17821912996026804
0.17648245038492483
0.1758933324427731
0.1747343491995163
0.17376851364357906
0.1731758794877904
0.17405380816195012
0.17530784665784113
0.17626647602232257
0.17632961920998266
0.17606311991899143
0.17577277538676345
0.1761358772128166
0.17467772971291207
0.17598488916437627
0.17531654490386708
0.17539606697095472
0.17495754724801013
0.17582991269525125
0.17652721777450114
0.1770952172721412
0.17768825611328556
0.17852926170257552
0.1793239251700375
0.18036946857287076
0.17841390986120798
0.17812380961296628
0.17712733506348693
0.17637038247971526
0.17676455519121728
0.1762409276240136
0.17671413694015878
0.17828992785566872
0.1790136790064556
0.17778234630548084
0.17728212599391527
0.17710437802163292
0.176406098305668
0.1750615516886228
0.17474246417541142
0.17396285989602278
0.17407155259704996
0.17525429465264328
0.1756936279790918
0.1761268339406346
0.17686826204750608
0.17774360358440386
0.1774383467680535
0.1763239913133839
0.17489205676605535
0.1742284534416439
0.17387024666432196
0.1740889194438506
0.1743300961604968
0.1744480469667216
0.17457423566619482
0.1753516468620657
0.17496854556500505
0.17450228113783037
0.17480444963234754
0.17523209783914462
0.1759424156011869
0.17633245871616626
0.17729669139937762
0.1768462090860998
0.17653844903225208
0.17652774168616073
0.17687982980254077
0.17745756246986344
0.17772371693890218
0.17691531467260985
0.17684411767197233
0.177072916785314
0.17716450200029127
0.17715888969652027
0.1767131700302472
0.17664406618438555
0.1767549780696163
0.17704591122622923
0.17751687042252656
0.17816785936541052
