0.2049370896694855
0.3108285661825409
0.40613569660209087
0.4908584219133359
0.5649966825395196
0.6285504188917678
0.6663736481778397
0.6918389285003156
0.7291977043677227
0.7849193788379133
0.8442198148840736
0.9077325095819857
0.9555199629279445
0.9827977827843865
1.0
0.9890636585183115
0.9690639795789135
0.9345372937950712
0.8954277686146236
0.8524929998415687
0.8203341229877815
0.7985853137913193
0.7869297343303223
0.7727484438097163
0.7601105146232081
0.7278570540209912
0.6841589239398507
0.6218477303581122
0.5515109946567263
0.4694844790080328
0.41247848708128976
0.3656305036731938
0.3444332152380127
0.3291613922126657
0.31510247747238984
0.2951239742141798
0.27200166536452414
0.24921996013439238
0.2215730292018645
0.19180709568062682
0.17864441519389887
0.17853476919969608
0.20116077726476014
0.21598073711717397
0.2257179098920146
0.2331542993185805
0.23628752730704253
0.23869307216518465
0.23555009655332648
0.23033272494517673
0.2316847170994141
0.2338510617256605
0.23156329137349832
0.20321430597211748
0.16892678197830924
0.1257148771313476
0.07817257330158366
0.04290535059692227
0.01551670746212163
0.0
0.0035491830678596173
0.017049199416687782
0.0365385246109806
0.04750413289747714
0.06406401827096164
0.08085933178920617
0.10661653948174764
0.128844583131351
0.14147947909699746
0.1447438685655109
0.1418943119270044
0.13484843821720952
0.12768910416254806
0.11238651597372111
0.1097965374044317
0.1296813200417519
0.15666982082909234
0.18602434194384973
0.2158973963087238
0.24065320735489157
0.24242896711597722
0.24220144434393048
0.23138898979685565
0.21327765128817588
0.19838054114105955
0.19156424098114597
0.19236559404670583
0.21288478896522445
0.2248343910950112
0.22872109828922763
0.21138437101397042
0.20162858285932553
0.17963749516353875
0.16013347707826536
0.14655570454549272
0.14282996437073886
0.15024007354597654
0.15212455033475447
0.13601843257732396
0.11980871565501817
0.10418169540568793
0.09828856079201263
0.09309357477414362
0.09141576970080392
0.09186796447015505
0.09255033625043524
0.08994006298572833
0.0801812963356163
0.07327160837463421
0.07364381614365163
0.08881044470758884
0.10518406931744569
0.12532977899703895
0.14830530901018688
0.16285191943269975
0.1699901379662244
0.17277833456321148
0.16847816564790133
0.16713672301137444
0.1646636455852675
0.16977687358205873
0.17248157399642894
0.18225988623497982
0.1864423276182951
0.19290101193533885
0.19596494988385185
0.21151059101793124
0.22981736707085285
0.2529279259578239
0.26239551006032996
0.26503392039013424
0.2619189603337657
0.25372141574287455
0.23651055786708336
0.22877500871793108
0.21959520050875878
0.22635908693750542
0.23544949005892343
0.24487853935899848
0.24415101364135344
0.24339487940259175
0.2538581962926783
0.26193655995553555
0.26243155775440763
0.2515587850157816
0.23597112894335742
0.21564620769170184
0.19016316055792232
0.1657860887053837
0.1521754629515786
0.16000741180600087
0.18126489757558814
0.19814995667492155
0.21332784482753084
0.2184679929245131
0.21903761237969477
0.20599085176365653
0.1891970747848662
0.17206921369577033
0.17043005792587232
0.1726537189880643
0.17978871039653627
0.18615935477870096
0.1944796955804874
0.2042698542171916
0.21046154410963558
0.21150366768611
0.21235047734860749
0.20850509067429399
0.20541481456132413
0.19802425041180394
0.18680036174198844
0.16676607256630954
0.15189874146742025
0.16190060390234134
0.18260149548812232
0.208443061882006
0.2364958731807981
0.25733487666153726
0.26860205863401465
0.27267142124880817
0.25465411775061986
0.23387656629617684
0.21006405312318055
0.20389489975388292
0.19768455628795614
0.19003476816909942
0.1886129955998709
0.1882000091184902
0.18724400818644216
0.18716174980902128
0.18969655286687673
0.19780331807447496
0.20074688083613007
0.20024764593413524
0.19090664320087328
0.17898689078554356
0.17311253110923178
0.1610264571280463
0.14875326418978185
0.13813086076951764
0.13747970561010903
0.14463395014468974
0.17561477687770402
0.22332184451127018
0.29397909403384903
0.3699050852104837
0.438728453978571
0.4854064452426163
0.5142393766051647
0.5137898874628489
0.48769861268638254
0.44328995991681985
0.3965687162448985
0.34668510191592333
0.3050391871376697
0.26827961523544663
0.2332640057314705
0.20942960747877085
0.19928694601021307
0.1969894422005186
0.19777798821722545
0.2019749693313324
0.2024796834097691
0.1954179672215677
0.1900700942140267
0.18165723651156243
0.16866957149935943
0.16486467767809693
0.16257677884962665
0.1618570887509749
0.15944862106353794
0.16611755725373298
0.17330334864954253
0.17452574039808597
0.17621727697500392
0.1711073895224439
0.1683849166355353
0.1637478611187864
0.1566890392372065
0.1474458692338193
0.14351882736904553
0.1407627298916592
0.14197542015166845
0.14269826424546253
0.1460198217759542
0.14932340725847681
0.15382962584604187
0.15901192725495272
0.16458218090953622
0.17049720227381074
0.17794827135776697
0.1784959565873269
0.17908579839649366
0.1778131333660383
0.1860812481366146
0.19628999075177314
0.2068449219690826
0.21216082614295553
0.21444128306609386
0.21044908548042232
0.20439944172751248
0.19599098361352074
0.1835604923561101
0.17759007348340314
0.18013943769198656
0.18040447859336547
0.1759512157338502
0.16429994110540933
0.15567473501090212
0.14939206175194802
0.14371356411517586
0.14353365929228784
0.14490639260615354
0.15380394018716953
0.15553606836308315
0.1595758916926235
0.16060919935446633
0.1593471141334182
0.16171291814262997
0.1655732874336843
0.16462453927980095
0.1687480855047736
0.16883824124919827
0.16976023046562577
0.16904112789191622
0.16600417767996334
0.16373151347185413
0.16325438149481136
0.16393850203823582
0.16546638382551268
0.17026378004315856
0.17759846571358023
0.18176447257172967
0.18738868016716784
0.19431689294023308
0.19513512586310425
0.2005281930425703
0.20499906613351232
0.20363526046739586
0.20379044003243693
0.2026323462248142
0.1956729523882783
0.19079815271420003
0.1869979000685597
0.18145290127615268
0.1796649959810447
0.18281542062327022
0.18481256678093666
0.18737323928504085
0.19055196183040138
0.19469716229990283
0.19675106808956755
0.20371767983035347
0.20457726774744603
0.20345991448756834
0.20549499353300163
0.2044600810463167
0.20275431767719088
0.19705194340601725
0.19189764141300075
0.19236185829351385
0.19651977298932263
0.2023779648230674
0.2047066261290218
0.20983996284188006
0.21678052803932707
0.22016452360089253
0.22751804867733513
0.22818995987559765
0.2312640267283466
0.23468773965550876
0.23986043975433716
0.2399843647514312
0.23576640069611102
0.23361211881988583
0.22825522188701053
0.22083023936161725
0.21098899629786078
0.20121794878059093
0.19593684397493588
0.19211947804463378
0.19226528409298932
0.18767539937371097
0.1864891804568582
0.1830383533710199
0.17443052376737747
0.16290379040498484
0.14824366824350815
0.13647980817689737
0.12400464023283504
0.1103490228369033
0.09716660517811847
0.08507912057056662
0.06976402394624252
0.054305593159053075
0.04505396568733065
0.03616179940705447
0.03117746055327039
0.030027729174162587
0.02717265197236213
0.02698398848523953
0.02602848760949129
0.02533733310296987
0.018907417644374147
0.014030674659487865
0.012163286070214618
0.010875343506759677
0.011251053283808675
0.01479933250715549
0.017327250431420343
0.023041559344050163
0.02840932585752083
0.03439797870404253
0.04021158334886935
0.04510006482859844
0.05352236218226606
0.06245242996875276
0.06999102843085618
0.07710309675950217
0.08031224936971204
0.08436210482135231
0.0897117028638548
0.09177784499225686
0.09703526620414099
0.10113606769520507
0.10823645564163602
0.11483124487002047
0.12394682735459388
0.13338770975499617
0.14257826312728214
0.15166136481935863
0.15862452398973384
0.15848669927569137
0.16296467449771668
0.1659932068897507
0.1690836180095183
0.17196413400328805
0.18018909401672617
0.18718382080596277
0.194694776672648
0.1998604285284342
0.20276493418598396
0.20275763034872868
0.2075873493827914
0.21255709873997503
0.21655891839353855
0.22020259807042117
0.22287975901983886
0.22109504953332798
0.22100338000131117
0.22410917885627227
0.2228608877986033
0.22193389110698875
0.22085016320108672
0.22623465170187568
0.22914113439663059
0.23149504120323428
0.23047987246436843
0.23055844507285736
0.23270569565782212
0.2343400996509957
0.23079652570844114
0.22794838155270652
0.22657770821243453
0.2290242613831463
0.22698138229959064
0.2263059442260226
0.2230705652352
0.22570543445682495
0.22500561153486184
0.2238004178017181
0.22437701046064426
0.22460066542847174
0.22680416471334322
0.22574368808475667
0.22239989619895026
0.22016679417758367
0.2176507423384681
0.22024756311705362
0.21943438440701785
0.21886629356012666
0.21940937830818494
0.21751111500562736
0.21547443655532664
0.21334559613654644
0.20775809137546392
0.20387880172186398
0.20259316701424243
0.20250709955797577
0.20246161747051247
0.2034890326106727
0.2070690369149437
0.21210134560370594
0.21413824114695781
0.2167526652735897
0.2173027867007867
0.21383907276067302
0.21151823371223805
0.20629404032656196
0.2009195304192611
0.19714512259353206
0.19289047663489978
0.1920580939394087
0.19030115697394984
0.18852743117218432
0.18872563047836033
0.18664359412285988
0.18697405185372515
0.18846277859847843
0.18697187327206302
0.18496024699721034
0.18271180393943642
0.18326020334597837
0.18011615069751938
0.17370068138640116
0.1720799589295982
0.17042041030871066
0.17149440954251674
0.1726988992175808
0.17188476388841922
0.17237629585884645
0.17467617573823352
0.17624013478770734
0.17680666643286258
0.17639838203365968
0.1802402388660909
0.18111792658533413
0.1807620337384656
0.18032183662661344
0.17863771473043752
0.17559181680800376
0.1724248408971052
0.1704787212778787
0.17186937736047841
0.16966658731441903
0.16850417283491165
0.1681663116530746
0.16522041669752588
0.16621079069403563
0.1655233348982263
0.16654438126778162
0.16882953780229853
0.17575208808966675
0.17826238441100592
0.17825432506917802
0.1736604414859873
0.1720701007536695
0.1647406239072007
0.1612208326789912
0.15901871502639423
0.15941421922566193
0.15834779681635905
0.1594213768645863
0.15965967084409413
0.16126362742773395
0.16146046258384844
0.16446285646648431
0.16487891271016109
0.1684856293836592
0.16913347210288454
0.17128008687160157
0.16765252835701985
0.1662419968933316
0.16477542740136614
0.16409855890676364
0.16339813496730354
0.16227892516815862
0.16065269011699781
0.15685057559036042
0.1528221977190091
0.15205536021183982
0.14849861401238315
0.14888270036418277
0.14802164169764825
0.1508206709678233
0.15337077099910226
0.15619784380034174
0.1579565331677116
0.15796118276250629
0.15921972168247914
0.1581791905995087
0.15770385486827723
0.15876385653176722
0.15978206359520497
0.16107223137835774
0.16535172519098806
0.1705470585635026
0.17588778968041335
0.18308545411742794
0.194201020854814
0.20592328061974516
0.22530324740834115
0.24727268290624202
0.2720081040611137
0.3006460975742731
0.33178243074771047
0.35607051572643783
0.3778538010527606
0.39250143301084334
0.4037820804675944
0.4118818769721363
0.41593211628968246
0.417252148295194
0.42000579599909144
0.4242550925430849
0.42651545975892574
0.4264276477378895
0.42725412976660215
0.4226887138194277
0.41941311929724395
0.4145404002491821
0.40403733007074016
0.3948370904565692
0.38643347033284237
0.3775887283965145
0.3704549767977262
0.36785054002520945
0.3663332857330996
0.3660076897197987
0.36775220888495375
0.36999271425257907
0.3695875110738818
0.36623937545721685
0.36266537363405577
0.3558479012054923
0.3442389403799977
0.3352190454828356
0.32390258350017126
0.3122783266295807
0.3015087935838444
0.2952123257901246
0.2848847426646518
0.2753624349098215
0.2654792817454875
0.2559371155152463
0.24283952030465733
0.23277635813634298
0.22172045767370366
0.2126431081858351
0.20305847471373664
0.19734203767732164
0.1908394330753855
0.18488566983728885
0.17868646672140862
0.17579098657176406
0.1724330935126501
0.16862186321903466
0.1671194046271178
0.1630035075376107
0.15907874670469407
0.15910330798824845
0.15929476090376857
0.1576276659458561
0.1566551875857759
0.1565465041334724
0.1561645081914614
0.1551069042669924
0.15556115856510383
0.1522590345726077
0.15483069246250317
0.15522877623958728
0.15649319006656773
0.15644191237392358
0.15489158112432036
0.1520213501050459
0.15002862877276532
0.14983720306992507
0.15071840972111689
0.15084304918949606
0.15360062266629532
0.1529491505048876
0.15548841430513172
0.1566395332597286
0.156206288982115
0.1545345952930869
0.15378940925208737
0.1547085713588906
0.15551530954882228
0.15696056554640989
0.15874699123264527
0.16026700805749522
0.16140618123184716
0.1626575196689029
0.1634885968433528
0.16260607577805872
0.1623775418458183
0.16446518787106504
0.16390499871987996
0.16553676767990858
0.16593466904041823
0.1664670147300686
0.1659515686631791
0.16717726095181826
0.16686852021478482
0.1657013460240561
0.1661773020530964
0.16699661964369117
0.16592879685996903
0.1661448985659255
0.16559731896046045
0.16692808508284224
0.16744625217782008
0.1689708909688356
0.1680958684883644
0.16632675319908719
0.16482294869727046
0.16354859891594295
0.1626082838318983
0.16220130015377285
0.16135454893079804
0.16327511005247453
0.16293710451689222
0.16443591992662038
0.1643491839775128
0.16306240478983028
0.16244048696280675
0.1632249253228694
0.16385486762665208
0.1655355670984102
0.16613794958254277
0.16715793791399394
0.1662052125041991
0.16686905921652367
0.16737313395315842
0.16720168092824808
0.1660708190233017
0.1674065721042077
0.16777688371519855
0.17042164287762748
0.1715756975690402
0.17096499188883182
0.17036636651014228
0.1706357213230243
0.1711789635579326
0.17107542758329228
0.169371792404828
0.16894873687936862
0.16907175196359295
0.17044653143247068
0.1705130173525104
0.16972871326645567
0.16908344380675017
0.1708961999424713
0.1724371181435033
0.17357914489524914
0.17339511740618685
0.17281282210380175
0.1738606051804061
0.17456952804786924
0.17458720086861693
0.17507654341428405
0.17517243978202682
0.1757373573144034
0.1767585389675421
0.17644012258001676
0.17573927495002473
0.17566541193504015
0.17740429787645642
0.17791254082139885
0.17895067190685204
0.17961436087022417
0.17982877394531896
0.17899001870586367
0.1775261752236531
0.1758489892223934
0.17444858045449013
0.17295617239344108
0.1734718989958885
0.17264208211683812
0.17303059340802432
0.17418374671238962
0.17592871124306225
0.17691045174543477
0.1776778661875308
0.17947872081856536
0.178619688785199
0.1776776887122238
0.17655497985511
0.17644379082570005
0.17489502913863492
0.17623277722378275
0.17680940560016362
0.17785305567240375
0.1791451355309825
0.17977797430925532
0.1791835340432606
0.17925288469192058
0.1779875750514644
0.17911728412324526
0.17896168595837914
0.18075078862161906
0.17938038531138134
0.17955659295369583
0.1778766503574187
0.1763197560987938
0.17519956872783574
0.17450316827676715
0.1736330626489096
0.1735070694227919
0.1737367035288489
0.1754487905636547
0.17422163632125073
0.17500299852419066
0.1746611537057034
0.17504792045516224
0.1757029608414222
0.1771293333018803
0.1774950784256125
0.17748286520463613
0.17716466217335156
0.17849677500897082
0.1768419442568511
0.17674621127142853
0.17754020163016918
0.1773168160435211
0.17762085519052298
0.17843608447195144
0.17765291547953527
0.17716557164936333
0.17656264843628286
0.17648104521556646
0.17651261628214723
0.1774020247234742
0.17617750018375103
0.17530801782039132
0.17482956179073042
0.1745756374680426
0.1732530629676617
0.1738794531488777
0.1747501398191247
0.1747874794479349
0.17610773652132963
0.1757391262744003
0.17437403947399788
0.1757191573399353
0.17565314296354617
0.17601792758206056
0.1757881064049833
0.1757507666076296
0.1761541432354659
0.17466652173769934
0.17427283558803658
0.17352965184267743
0.1738086183523649
0.17507057623046285
0.1750197287699307
0.17513875728659806
0.17452633958709302
0.1736005171608839
0.17378844896872736
0.17206606832224308
0.1712256195786372
0.17147940116455365
0.17193915388361952
0.1731698818600834
0.17408085236359802
0.17487783801312617
0.17503181563501935
0.17552253984622762
0.17508945500672868
0.1730010558244511
0.17194508185080645
0.1715263993509864
0.17137600207258527
0.1716474065754065
0.1721414297717412
0.17333163604183352
0.17280792845180182
0.1736728062593732
0.17305896731930107
0.17337983666206402
0.17407700167847565
0.17213293549324102
0.1721033987206166
0.17183302463059022
0.1721513487590146
0.17338171600681387
0.17192529954112007
0.1732196194009162
0.17304862232658857
0.17393024410771418
0.17385608304581915
0.17347932804550664
0.173923436408456
0.1736437426868752
0.17420458061559208
0.17472423242474744
0.1737788640331278
0.1759601625906396
0.1749587213094759
0.17532376956064852
0.17490973533918872
0.1756205821597426
0.17436039957661076
0.17305274190233758
0.17335663624360154
0.172185966562551
0.17142183173512437
0.1717631281577265
0.17190031423874844
0.17265638867380997
0.17212744537276153
0.1728216153352383
0.17284805747406154
0.17297099089633514
0.17419630118896362
0.17476704477110827
0.17441219623830836
0.17336038948113391
0.1738715576047302
0.17351927387164304
0.17282935449038198
0.17205329203236372
0.17193570877985567
0.17156549004687827
0.17204649404661923
0.17320893596244397
0.17312278982405674
0.17242164830179
0.17437130366845982
0.17622202659436112
0.17658590702388272
0.17657986693760847
0.1765631697411687
0.17577165559861158
0.17462009943296045
0.17364737252288165
0.17350338062353243
0.1730124716228427
0.17382060648080355
0.17452026466387524
0.17431135582312676
0.1745557189569452
0.17337229642949425
0.1728609860121332
0.1727768726778121
0.17308731606236283
0.17403399991232762
0.17519565980235233
0.17529866834487706
0.17691319117096455
0.17664285578696742
0.17649611238182492
0.17519932312059608
0.17444088777300934
0.173943219189752
0.17383041716073971
0.17325991714379588
0.172819555285012
0.17072622899586162
0.17117643549788494
0.17100892638029028
0.17078868303458847
0.17070186152237185
0.1722703146976767
0.17315904024452416
0.1745567876875376
0.17494826080453924
0.17502907902443013
0.1733002721862955
0.17311578191920707
0.17174544649905008
0.170456389821521
0.1701630357668636
0.17064985955457954
0.17070854978796846
0.1716584929431367
0.1725591750062663
0.17466467171907632
0.175088081031088
0.17600442142852898
0.17616946316667845
0.17606002731188938
0.17577083870995908
0.17397274992907524
0.17402950254576388
0.17422332120798062
0.17402843086547787
0.17420902925717116
0.17398134513611083
0.173815656742665
0.1737413646640876
0.1739511568604002
0.17435033440952832
0.17440658652232247
0.17450527888781636
0.17464641697103062
0.17483000512347807
0.17505604644279898
